# Created 2026-03-21 10:39:13.376787

data_optics

loop_
_rlnOpticsGroup
_rlnOpticsGroupName
_rlnImagePixelSize
_rlnImageSize
_rlnVoltage
_rlnSphericalAberration
_rlnAmplitudeContrast
_rlnImageDimensionality
1 opticsGroup1 1.62 384 300.0 0.1 0.1 2


data_particles

loop_
_rlnDefocusU
_rlnDefocusV
_rlnDefocusAngle
_rlnImageName
_rlnMicrographName
_rlnCtfScalefactor
_rlnGroupName
_rlnAngleRot
_rlnAngleTilt
_rlnAnglePsi
_rlnOriginXAngst
_rlnOriginYAngst
_rlnRandomSubset
_rlnMicrographPreExposure
_rlnTomoNominalStageTiltAngle
_rlnOpticsGroup
29949.94682236017 31099.693508360167 87.272206 000014@Extract/job193/Subtomograms/area12_ts_001/1_stack2d.mrcs MotionCorr/job003/frames/area12_ts_001_001_00000_2_9.mrc 2.392987 area12_ts_001/1 65.0439926589805 127.54691633280461 -134.76489348814167 0.0 0.0 1 3.0 2.94891 1
29927.396649895785 30811.364822895783 77.849839 000013@Extract/job193/Subtomograms/area12_ts_001/1_stack2d.mrcs MotionCorr/job003/frames/area12_ts_001_001_00000_-3_0.mrc 2.34867 area12_ts_001/1 58.81751750426106 130.97492661852135 -138.70471737128074 0.0 0.0 1 9.0 -3.03735 1
30585.327371346233 31248.155373346235 83.89017 000015@Extract/job193/Subtomograms/area12_ts_001/1_stack2d.mrcs MotionCorr/job003/frames/area12_ts_001_001_00000_8_9.mrc 2.606361 area12_ts_001/1 70.72749331499747 124.10195037003196 -131.4409604342475 0.0 0.0 1 15.0 8.94918 1
29843.105474257085 30492.155500257086 85.976241 000016@Extract/job193/Subtomograms/area12_ts_001/1_stack2d.mrcs MotionCorr/job003/frames/area12_ts_001_001_00000_11_9.mrc 2.407773 area12_ts_001/1 73.48857913936426 122.25070855146366 -129.93181409306558 0.0 0.0 1 18.0 11.9493 1
30773.400001779108 31128.00271277911 52.975154 000017@Extract/job193/Subtomograms/area12_ts_001/1_stack2d.mrcs MotionCorr/job003/frames/area12_ts_001_001_00000_14_9.mrc 1.374583 area12_ts_001/1 75.55956372057844 121.12864886330475 -128.8120586373767 0.0 0.0 1 27.0 14.9494 1
29314.784487732108 30147.533918732108 73.865147 000018@Extract/job193/Subtomograms/area12_ts_001/1_stack2d.mrcs MotionCorr/job003/frames/area12_ts_001_001_00000_17_9.mrc 1.615593 area12_ts_001/1 77.93814213059679 119.59357136820374 -127.57495770114615 0.0 0.0 1 30.0 17.9496 1
31977.226442126903 32734.356520126905 88.740582 000012@Extract/job193/Subtomograms/area12_ts_001/1_stack2d.mrcs MotionCorr/job003/frames/area12_ts_001_001_00000_-18_0.mrc 1.731075 area12_ts_001/1 39.31528452894745 136.98419309430983 -152.2839263916182 0.0 0.0 1 36.0 -18.0335 1
29245.385246820297 30370.507490820295 79.088429 000019@Extract/job193/Subtomograms/area12_ts_001/1_stack2d.mrcs MotionCorr/job003/frames/area12_ts_001_001_00000_20_9.mrc 1.604759 area12_ts_001/1 80.85426220217587 117.18202911505315 -126.20530538049232 0.0 0.0 1 39.0 20.9487 1
31991.549600058064 32432.507995058066 121.549759 000011@Extract/job193/Subtomograms/area12_ts_001/1_stack2d.mrcs MotionCorr/job003/frames/area12_ts_001_001_00000_-24_0.mrc 1.244123 area12_ts_001/1 30.603743822993177 138.43423261052186 -158.75586002219455 0.0 0.0 1 48.0 -24.0203 1
29242.27274598884 29766.82534598884 115.382481 000020@Extract/job193/Subtomograms/area12_ts_001/1_stack2d.mrcs MotionCorr/job003/frames/area12_ts_001_001_00000_26_9.mrc 0.325061 area12_ts_001/1 86.39445720051862 112.98947139231366 -123.74686602112043 0.0 0.0 1 51.0 26.949 1
33109.95534298656 33894.831829986564 91.702636 000010@Extract/job193/Subtomograms/area12_ts_001/1_stack2d.mrcs MotionCorr/job003/frames/area12_ts_001_001_00000_-27_0.mrc 1.278149 area12_ts_001/1 26.61412589570422 138.67572385933317 -161.67606380016434 0.0 0.0 1 57.0 -27.0254 1
33442.05014362081 34420.25722962081 82.445 000009@Extract/job193/Subtomograms/area12_ts_001/1_stack2d.mrcs MotionCorr/job003/frames/area12_ts_001_001_00000_-30_0.mrc 1.109304 area12_ts_001/1 21.943699461257836 139.11369252426184 -165.24254215198332 0.0 0.0 1 60.0 -30.0185 1
28856.959975263384 29313.105848263385 47.5691 000021@Extract/job193/Subtomograms/area12_ts_001/1_stack2d.mrcs MotionCorr/job003/frames/area12_ts_001_001_00000_32_9.mrc 0.359618 area12_ts_001/1 90.52773664539528 108.7605481951759 -122.32097887398811 0.0 0.0 1 63.0 32.9482 1
27183.331947417893 27567.704766417894 92.729533 000022@Extract/job193/Subtomograms/area12_ts_001/1_stack2d.mrcs MotionCorr/job003/frames/area12_ts_001_001_00000_35_9.mrc 0.370518 area12_ts_001/1 92.65092707067942 106.46969958087296 -121.71896286816164 0.0 0.0 1 66.0 35.9489 1
34888.11109404223 35775.117902042235 94.947513 000008@Extract/job193/Subtomograms/area12_ts_001/1_stack2d.mrcs MotionCorr/job003/frames/area12_ts_001_001_00000_-36_0.mrc 1.02662 area12_ts_001/1 12.813161161796481 139.2964368267792 -172.1699534129092 0.0 0.0 1 72.0 -36.0128 1
28496.995494123737 29062.250717123738 74.996804 000023@Extract/job193/Subtomograms/area12_ts_001/1_stack2d.mrcs MotionCorr/job003/frames/area12_ts_001_001_00000_38_9.mrc 0.380531 area12_ts_001/1 94.68123094869539 104.08185212641916 -121.22443308423736 0.0 0.0 1 75.0 38.9485 1
27119.992249013467 27753.357537013468 98.31695 000024@Extract/job193/Subtomograms/area12_ts_001/1_stack2d.mrcs MotionCorr/job003/frames/area12_ts_001_001_00000_41_9.mrc 0.332945 area12_ts_001/1 96.69194482687324 101.73567480581055 -120.8433634372735 0.0 0.0 1 78.0 41.9486 1
38326.76155240762 38859.16862740761 90.465073 000007@Extract/job193/Subtomograms/area12_ts_001/1_stack2d.mrcs MotionCorr/job003/frames/area12_ts_001_001_00000_-42_0.mrc 1.047425 area12_ts_001/1 3.664740970235995 138.72973643548056 -179.13679009209312 0.0 0.0 1 84.0 -42.0111 1
27833.014008525806 28247.284397525807 76.257192 000025@Extract/job193/Subtomograms/area12_ts_001/1_stack2d.mrcs MotionCorr/job003/frames/area12_ts_001_001_00000_44_9.mrc 0.3277 area12_ts_001/1 98.59755831224724 99.55432160743257 -120.51328896797358 0.0 0.0 1 87.0 44.9483 1
27243.014120308424 27503.136589308426 100.989277 000026@Extract/job193/Subtomograms/area12_ts_001/1_stack2d.mrcs MotionCorr/job003/frames/area12_ts_001_001_00000_47_9.mrc 0.232253 area12_ts_001/1 100.62140822153552 97.24825235487975 -120.20517528346252 0.0 0.0 1 90.0 47.9484 1
39461.91790774672 39669.644017746716 83.283049 000006@Extract/job193/Subtomograms/area12_ts_001/1_stack2d.mrcs MotionCorr/job003/frames/area12_ts_001_001_00000_-45_0.mrc 0.956975 area12_ts_001/1 -0.6975412197691828 138.18513421076176 177.60231824187395 0.0 0.0 1 93.0 -45.0047 1
40060.54461224497 40610.12212124497 96.766369 000005@Extract/job193/Subtomograms/area12_ts_001/1_stack2d.mrcs MotionCorr/job003/frames/area12_ts_001_001_00000_-48_0.mrc 0.790727 area12_ts_001/1 -5.102816391055664 137.44545737492152 174.3031681572076 0.0 0.0 1 96.0 -48.0058 1
28582.627949789676 28899.132287789675 122.965717 000027@Extract/job193/Subtomograms/area12_ts_001/1_stack2d.mrcs MotionCorr/job003/frames/area12_ts_001_001_00000_50_9.mrc 0.077142 area12_ts_001/1 103.28237647451688 94.82123285252948 -119.50225190356161 0.0 0.0 1 99.0 50.9485 1
28050.417894265524 28460.787959265523 100.147964 000028@Extract/job193/Subtomograms/area12_ts_001/1_stack2d.mrcs MotionCorr/job003/frames/area12_ts_001_001_00000_53_9.mrc 0.204806 area12_ts_001/1 104.74151514160448 92.53381882367562 -119.75079865042002 0.0 0.0 1 102.0 53.9487 1
41352.888378951815 41548.62491095182 103.455634 000004@Extract/job193/Subtomograms/area12_ts_001/1_stack2d.mrcs MotionCorr/job003/frames/area12_ts_001_001_00000_-51_0.mrc 0.638712 area12_ts_001/1 -9.3177998424201 136.56599212841428 171.21018763440458 0.0 0.0 1 105.0 -51.003 1
42661.550737913945 43042.442587913945 90.635857 000003@Extract/job193/Subtomograms/area12_ts_001/1_stack2d.mrcs MotionCorr/job003/frames/area12_ts_001_001_00000_-54_0.mrc 0.642336 area12_ts_001/1 -13.308153060691279 135.4769306764344 168.431039524222 0.0 0.0 1 108.0 -54.0036 1
28153.290485807698 28449.659380807698 94.239078 000029@Extract/job193/Subtomograms/area12_ts_001/1_stack2d.mrcs MotionCorr/job003/frames/area12_ts_001_001_00000_56_9.mrc 0.053167 area12_ts_001/1 106.70967690624668 90.30669609535992 -119.67226807669086 0.0 0.0 1 111.0 56.9483 1
27373.094920085216 27837.632527085218 102.040392 000030@Extract/job193/Subtomograms/area12_ts_001/1_stack2d.mrcs MotionCorr/job003/frames/area12_ts_001_001_00000_59_9.mrc -0.02757 area12_ts_001/1 109.1136002917403 88.12624472048658 -119.64141155879592 0.0 0.0 1 114.0 59.9479 1
24299.4336138112 24603.3243918112 94.130642 000002@Extract/job193/Subtomograms/area12_ts_001/1_stack2d.mrcs MotionCorr/job003/frames/area12_ts_001_001_00000_-57_0.mrc 0.560086 area12_ts_001/1 -17.197370668416678 134.18629199319165 165.75517542687805 0.0 0.0 1 117.0 -57.0002 1
27442.22072499824 27836.29905599824 100.773735 000001@Extract/job193/Subtomograms/area12_ts_001/1_stack2d.mrcs MotionCorr/job003/frames/area12_ts_001_001_00000_-60_0.mrc 0.206171 area12_ts_001/1 -20.573700028097026 132.3088600872171 163.84475051329954 0.0 0.0 1 120.0 -59.9999 1
30129.058010919227 31019.355790919224 84.2562 000021@Extract/job193/Subtomograms/area12_ts_001/2_stack2d.mrcs MotionCorr/job003/frames/area12_ts_001_001_00000_-0_0.mrc 2.634708 area12_ts_001/2 118.12380336804229 53.010291462081575 -25.35319296918199 0.0 0.0 1 0.0 -0.04372 1
30005.469696043714 31155.216382043713 87.272206 000022@Extract/job193/Subtomograms/area12_ts_001/2_stack2d.mrcs MotionCorr/job003/frames/area12_ts_001_001_00000_2_9.mrc 2.392987 area12_ts_001/2 114.41597498341872 51.38416225061759 -23.082463943007838 0.0 0.0 1 3.0 2.94891 1
30038.49194139107 30931.888881391067 90.706927 000023@Extract/job193/Subtomograms/area12_ts_001/2_stack2d.mrcs MotionCorr/job003/frames/area12_ts_001_001_00000_5_9.mrc 2.558831 area12_ts_001/2 111.42470181448263 49.88303200741359 -21.184962388359253 0.0 0.0 1 6.0 5.94905 1
29616.068363219907 30500.036536219905 77.849839 000020@Extract/job193/Subtomograms/area12_ts_001/2_stack2d.mrcs MotionCorr/job003/frames/area12_ts_001_001_00000_-3_0.mrc 2.34867 area12_ts_001/2 120.63808942323232 54.594072968727524 -26.82707928566736 0.0 0.0 1 9.0 -3.03735 1
30020.400104444154 30805.622498444154 89.253417 000019@Extract/job193/Subtomograms/area12_ts_001/2_stack2d.mrcs MotionCorr/job003/frames/area12_ts_001_001_00000_-6_0.mrc 2.40529 area12_ts_001/2 123.7262881104188 56.41450112694014 -28.576107400447754 0.0 0.0 1 12.0 -6.04548 1
30989.749164155524 31652.577166155526 83.89017 000024@Extract/job193/Subtomograms/area12_ts_001/2_stack2d.mrcs MotionCorr/job003/frames/area12_ts_001_001_00000_8_9.mrc 2.606361 area12_ts_001/2 107.97991326779415 48.404839711420486 -18.938356658419487 0.0 0.0 1 15.0 8.94918 1
30424.912814662 31073.962840662 85.976241 000025@Extract/job193/Subtomograms/area12_ts_001/2_stack2d.mrcs MotionCorr/job003/frames/area12_ts_001_001_00000_11_9.mrc 2.407773 area12_ts_001/2 104.45773165491744 46.99708086283042 -16.569510880006806 0.0 0.0 1 18.0 11.9493 1
29601.95537741015 30688.631256410154 93.300276 000018@Extract/job193/Subtomograms/area12_ts_001/2_stack2d.mrcs MotionCorr/job003/frames/area12_ts_001_001_00000_-9_0.mrc 2.036628 area12_ts_001/2 126.55644262830707 58.40085428811151 -30.078533799678308 0.0 0.0 1 21.0 -9.04012 1
30513.18271294066 31272.90688994066 87.269572 000017@Extract/job193/Subtomograms/area12_ts_001/2_stack2d.mrcs MotionCorr/job003/frames/area12_ts_001_001_00000_-12_0.mrc 2.30253 area12_ts_001/2 129.1275022175382 60.47610104469881 -31.359001851866665 0.0 0.0 1 24.0 -12.0437 1
31469.02167864428 31823.624389644283 52.975154 000026@Extract/job193/Subtomograms/area12_ts_001/2_stack2d.mrcs MotionCorr/job003/frames/area12_ts_001_001_00000_14_9.mrc 1.374583 area12_ts_001/2 102.06315960002631 45.832529669887535 -14.886712727878232 0.0 0.0 1 27.0 14.9494 1
30154.453195553153 30987.202626553153 73.865147 000027@Extract/job193/Subtomograms/area12_ts_001/2_stack2d.mrcs MotionCorr/job003/frames/area12_ts_001_001_00000_17_9.mrc 1.615593 area12_ts_001/2 98.89795971767371 44.59863360326635 -12.62198426084129 0.0 0.0 1 30.0 17.9496 1
30721.020790060786 31353.111606060786 108.983722 000016@Extract/job193/Subtomograms/area12_ts_001/2_stack2d.mrcs MotionCorr/job003/frames/area12_ts_001_001_00000_-15_0.mrc 1.709505 area12_ts_001/2 130.6313461433598 62.38171916760769 -32.01844402423139 0.0 0.0 1 33.0 -15.0334 1
30778.275065140788 31535.40514314079 88.740582 000015@Extract/job193/Subtomograms/area12_ts_001/2_stack2d.mrcs MotionCorr/job003/frames/area12_ts_001_001_00000_-18_0.mrc 1.731075 area12_ts_001/2 133.7911481034073 64.76127297598383 -33.465982954593805 0.0 0.0 1 36.0 -18.0335 1
30291.563488204458 31416.685732204456 79.088429 000028@Extract/job193/Subtomograms/area12_ts_001/2_stack2d.mrcs MotionCorr/job003/frames/area12_ts_001_001_00000_20_9.mrc 1.604759 area12_ts_001/2 94.15758991344777 43.3467365959119 -9.226653850386809 0.0 0.0 1 39.0 20.9487 1
29706.172585019893 30352.884338019892 95.640773 000029@Extract/job193/Subtomograms/area12_ts_001/2_stack2d.mrcs MotionCorr/job003/frames/area12_ts_001_001_00000_23_9.mrc 1.201806 area12_ts_001/2 89.72519800694411 42.586136000952145 -6.04244202667229 0.0 0.0 1 42.0 23.9493 1
30962.98293991519 31680.26351091519 94.813841 000014@Extract/job193/Subtomograms/area12_ts_001/2_stack2d.mrcs MotionCorr/job003/frames/area12_ts_001_001_00000_-21_0.mrc 1.629376 area12_ts_001/2 135.9028826756201 66.73644131154217 -34.30000129466656 0.0 0.0 1 45.0 -21.0236 1
30457.03062367891 30897.989018678913 121.549759 000013@Extract/job193/Subtomograms/area12_ts_001/2_stack2d.mrcs MotionCorr/job003/frames/area12_ts_001_001_00000_-24_0.mrc 1.244123 area12_ts_001/2 138.42970380089176 69.03111740992289 -35.309775733584296 0.0 0.0 1 48.0 -24.0203 1
30639.237778068156 31163.790378068155 115.382481 000030@Extract/job193/Subtomograms/area12_ts_001/2_stack2d.mrcs MotionCorr/job003/frames/area12_ts_001_001_00000_26_9.mrc 0.325061 area12_ts_001/2 85.06128134990415 41.00101974452417 -2.371021662249539 0.0 0.0 1 51.0 26.949 1
23567.522197862647 24529.172739862646 129.09351 000031@Extract/job193/Subtomograms/area12_ts_001/2_stack2d.mrcs MotionCorr/job003/frames/area12_ts_001_001_00000_29_9.mrc 0.485578 area12_ts_001/2 81.26844579757598 40.46575501028353 0.5630962266619493 0.0 0.0 1 54.0 29.9486 1
31439.730964560964 32224.607451560965 91.702636 000012@Extract/job193/Subtomograms/area12_ts_001/2_stack2d.mrcs MotionCorr/job003/frames/area12_ts_001_001_00000_-27_0.mrc 1.278149 area12_ts_001/2 140.2373185502624 71.06669189989357 -35.85579410662549 0.0 0.0 1 57.0 -27.0254 1
31605.970040665045 32584.177126665043 82.445 000011@Extract/job193/Subtomograms/area12_ts_001/2_stack2d.mrcs MotionCorr/job003/frames/area12_ts_001_001_00000_-30_0.mrc 1.109304 area12_ts_001/2 142.5543830486351 73.24683062059161 -36.61242224800198 0.0 0.0 1 60.0 -30.0185 1
30567.334562500466 31023.480435500467 47.5691 000032@Extract/job193/Subtomograms/area12_ts_001/2_stack2d.mrcs MotionCorr/job003/frames/area12_ts_001_001_00000_32_9.mrc 0.359618 area12_ts_001/2 76.34977993246936 40.15528567030399 4.202619687068288 0.0 0.0 1 63.0 32.9482 1
29054.032981660886 29438.405800660887 92.729533 000033@Extract/job193/Subtomograms/area12_ts_001/2_stack2d.mrcs MotionCorr/job003/frames/area12_ts_001_001_00000_35_9.mrc 0.370518 area12_ts_001/2 71.60872066874263 39.97152462776146 7.791267282945926 0.0 0.0 1 66.0 35.9489 1
32555.14547641976 33434.07044341976 113.918249 000010@Extract/job193/Subtomograms/area12_ts_001/2_stack2d.mrcs MotionCorr/job003/frames/area12_ts_001_001_00000_-33_0.mrc 1.186678 area12_ts_001/2 144.50396628375546 75.32177936526159 -37.132947540058645 0.0 0.0 1 69.0 -33.0127 1
32752.45248029916 33639.459288299164 94.947513 000009@Extract/job193/Subtomograms/area12_ts_001/2_stack2d.mrcs MotionCorr/job003/frames/area12_ts_001_001_00000_-36_0.mrc 1.02662 area12_ts_001/2 146.78084295826204 77.58921556642655 -37.6865698029539 0.0 0.0 1 72.0 -36.0128 1
30526.933604660397 31092.188827660397 74.996804 000034@Extract/job193/Subtomograms/area12_ts_001/2_stack2d.mrcs MotionCorr/job003/frames/area12_ts_001_001_00000_38_9.mrc 0.380531 area12_ts_001/2 66.80741621304895 40.06413964821552 11.42865723324285 0.0 0.0 1 75.0 38.9485 1
29300.009634698523 29933.374922698524 98.31695 000035@Extract/job193/Subtomograms/area12_ts_001/2_stack2d.mrcs MotionCorr/job003/frames/area12_ts_001_001_00000_41_9.mrc 0.332945 area12_ts_001/2 62.08225247574716 40.29644904665137 14.971366281871246 0.0 0.0 1 78.0 41.9486 1
34922.520858100776 35260.852051100774 117.81293 000008@Extract/job193/Subtomograms/area12_ts_001/2_stack2d.mrcs MotionCorr/job003/frames/area12_ts_001_001_00000_-39_0.mrc 0.936149 area12_ts_001/2 148.5201291721041 79.66556101756028 -38.02635782158137 0.0 0.0 1 81.0 -39.0119 1
35912.825393926134 36445.23246892613 90.465073 000007@Extract/job193/Subtomograms/area12_ts_001/2_stack2d.mrcs MotionCorr/job003/frames/area12_ts_001_001_00000_-42_0.mrc 1.047425 area12_ts_001/2 150.889866588292 82.05379608608268 -38.46821795830068 0.0 0.0 1 84.0 -42.0111 1
30146.554498760728 30560.82488776073 76.257192 000036@Extract/job193/Subtomograms/area12_ts_001/2_stack2d.mrcs MotionCorr/job003/frames/area12_ts_001_001_00000_44_9.mrc 0.3277 area12_ts_001/2 57.68146816478037 40.63012829816157 18.29825518849919 0.0 0.0 1 87.0 44.9483 1
29690.835311782062 29950.957780782064 100.989277 000037@Extract/job193/Subtomograms/area12_ts_001/2_stack2d.mrcs MotionCorr/job003/frames/area12_ts_001_001_00000_47_9.mrc 0.232253 area12_ts_001/2 53.07788397994966 41.13108444610658 21.79207432557568 0.0 0.0 1 90.0 47.9484 1
36921.82996648644 37129.556076486435 83.283049 000006@Extract/job193/Subtomograms/area12_ts_001/2_stack2d.mrcs MotionCorr/job003/frames/area12_ts_001_001_00000_-45_0.mrc 0.956975 area12_ts_001/2 152.85515317637876 84.25748594365457 -38.697645565980935 0.0 0.0 1 93.0 -45.0047 1
37397.051358356555 37946.62886735655 96.766369 000005@Extract/job193/Subtomograms/area12_ts_001/2_stack2d.mrcs MotionCorr/job003/frames/area12_ts_001_001_00000_-48_0.mrc 0.790727 area12_ts_001/2 154.87054149497115 86.55100456310731 -38.89329652759621 0.0 0.0 1 96.0 -48.0058 1
31163.726168016583 31480.23050601658 122.965717 000038@Extract/job193/Subtomograms/area12_ts_001/2_stack2d.mrcs MotionCorr/job003/frames/area12_ts_001_001_00000_50_9.mrc 0.077142 area12_ts_001/2 47.67394985771033 41.53204268391142 26.274287064250245 0.0 0.0 1 99.0 50.9485 1
30749.420652262022 31159.79071726202 100.147964 000039@Extract/job193/Subtomograms/area12_ts_001/2_stack2d.mrcs MotionCorr/job003/frames/area12_ts_001_001_00000_53_9.mrc 0.204806 area12_ts_001/2 43.99639796378617 42.6617634679525 28.661467767231958 0.0 0.0 1 102.0 53.9487 1
38574.771934722456 38770.50846672246 103.455634 000004@Extract/job193/Subtomograms/area12_ts_001/2_stack2d.mrcs MotionCorr/job003/frames/area12_ts_001_001_00000_-51_0.mrc 0.638712 area12_ts_001/2 156.8555931085577 88.80908008957803 -38.982986899650065 0.0 0.0 1 105.0 -51.003 1
39780.03029194591 40160.92214194591 90.635857 000003@Extract/job193/Subtomograms/area12_ts_001/2_stack2d.mrcs MotionCorr/job003/frames/area12_ts_001_001_00000_-54_0.mrc 0.642336 area12_ts_001/2 158.76065932319187 91.09650810517445 -38.89155772342145 0.0 0.0 1 108.0 -54.0036 1
30959.550727606085 31255.919622606085 94.239078 000040@Extract/job193/Subtomograms/area12_ts_001/2_stack2d.mrcs MotionCorr/job003/frames/area12_ts_001_001_00000_56_9.mrc 0.053167 area12_ts_001/2 39.87228811258767 43.601732463322044 31.701618438535373 0.0 0.0 1 111.0 56.9483 1
30274.604947206364 30739.142554206366 102.040392 000041@Extract/job193/Subtomograms/area12_ts_001/2_stack2d.mrcs MotionCorr/job003/frames/area12_ts_001_001_00000_59_9.mrc -0.02757 area12_ts_001/2 35.36611595218941 44.45406205552152 35.00619965448954 0.0 0.0 1 114.0 59.9479 1
21321.69437891928 21625.58515691928 94.130642 000002@Extract/job193/Subtomograms/area12_ts_001/2_stack2d.mrcs MotionCorr/job003/frames/area12_ts_001_001_00000_-57_0.mrc 0.560086 area12_ts_001/2 160.67896008542374 93.46229546521162 -38.74840127816703 0.0 0.0 1 117.0 -57.0002 1
24395.034736823898 24789.1130678239 100.773735 000001@Extract/job193/Subtomograms/area12_ts_001/2_stack2d.mrcs MotionCorr/job003/frames/area12_ts_001_001_00000_-60_0.mrc 0.206171 area12_ts_001/2 162.2013499872991 96.15845179179108 -38.217153334433945 0.0 0.0 1 120.0 -59.9999 1
30194.14913554264 31084.446915542638 84.2562 000021@Extract/job193/Subtomograms/area12_ts_001/3_stack2d.mrcs MotionCorr/job003/frames/area12_ts_001_001_00000_-0_0.mrc 2.634708 area12_ts_001/3 31.15524203018272 64.0789368173897 41.29184490766094 0.0 0.0 1 0.0 -0.04372 1
30077.664248120072 31227.41093412007 87.272206 000022@Extract/job193/Subtomograms/area12_ts_001/3_stack2d.mrcs MotionCorr/job003/frames/area12_ts_001_001_00000_2_9.mrc 2.392987 area12_ts_001/3 28.20932323759704 66.10058991435425 42.53038661566315 0.0 0.0 1 3.0 2.94891 1
30137.34445709487 31030.74139709487 90.706927 000023@Extract/job193/Subtomograms/area12_ts_001/3_stack2d.mrcs MotionCorr/job003/frames/area12_ts_001_001_00000_5_9.mrc 2.558831 area12_ts_001/3 25.67148627278135 67.56913601773357 43.52873193898591 0.0 0.0 1 6.0 5.94905 1
29652.65098870658 30536.619161706578 77.849839 000020@Extract/job193/Subtomograms/area12_ts_001/3_stack2d.mrcs MotionCorr/job003/frames/area12_ts_001_001_00000_-3_0.mrc 2.34867 area12_ts_001/3 33.675013788753 62.83663220051369 40.17694064637399 0.0 0.0 1 9.0 -3.03735 1
30038.03039233375 30823.25278633375 89.253417 000019@Extract/job193/Subtomograms/area12_ts_001/3_stack2d.mrcs MotionCorr/job003/frames/area12_ts_001_001_00000_-6_0.mrc 2.40529 area12_ts_001/3 36.69266709606717 61.19649437139963 38.76107300806744 0.0 0.0 1 12.0 -6.04548 1
31112.243004935965 31775.071006935967 83.89017 000024@Extract/job193/Subtomograms/area12_ts_001/3_stack2d.mrcs MotionCorr/job003/frames/area12_ts_001_001_00000_8_9.mrc 2.606361 area12_ts_001/3 23.017462501120125 69.2666369790083 44.49781445883584 0.0 0.0 1 15.0 8.94918 1
30574.649598337943 31223.699624337944 85.976241 000025@Extract/job193/Subtomograms/area12_ts_001/3_stack2d.mrcs MotionCorr/job003/frames/area12_ts_001_001_00000_11_9.mrc 2.407773 area12_ts_001/3 20.416787755847956 70.9361165946237 45.38103038934009 0.0 0.0 1 18.0 11.9493 1
29590.647480027434 30677.323359027436 93.300276 000018@Extract/job193/Subtomograms/area12_ts_001/3_stack2d.mrcs MotionCorr/job003/frames/area12_ts_001_001_00000_-9_0.mrc 2.036628 area12_ts_001/3 39.85497728931239 59.76166228710289 37.22495810099512 0.0 0.0 1 21.0 -9.04012 1
30466.2529134248 31225.9770904248 87.269572 000017@Extract/job193/Subtomograms/area12_ts_001/3_stack2d.mrcs MotionCorr/job003/frames/area12_ts_001_001_00000_-12_0.mrc 2.30253 area12_ts_001/3 43.08428881052812 58.527787063817534 35.595516087704745 0.0 0.0 1 24.0 -12.0437 1
31657.196919870345 32011.799630870348 52.975154 000026@Extract/job193/Subtomograms/area12_ts_001/3_stack2d.mrcs MotionCorr/job003/frames/area12_ts_001_001_00000_14_9.mrc 1.374583 area12_ts_001/3 18.46302381298425 71.90287000034327 46.0353391882289 0.0 0.0 1 27.0 14.9494 1
30379.46294861906 31212.21237961906 73.865147 000027@Extract/job193/Subtomograms/area12_ts_001/3_stack2d.mrcs MotionCorr/job003/frames/area12_ts_001_001_00000_17_9.mrc 1.615593 area12_ts_001/3 16.16979720693543 73.23753150800908 46.75699187856536 0.0 0.0 1 30.0 17.9496 1
30615.483796645472 31247.574612645472 108.983722 000016@Extract/job193/Subtomograms/area12_ts_001/3_stack2d.mrcs MotionCorr/job003/frames/area12_ts_001_001_00000_-15_0.mrc 1.709505 area12_ts_001/3 45.75618175442288 58.07183945206971 34.251210031241314 0.0 0.0 1 33.0 -15.0334 1
30653.81566506891 31410.94574306891 88.740582 000015@Extract/job193/Subtomograms/area12_ts_001/3_stack2d.mrcs MotionCorr/job003/frames/area12_ts_001_001_00000_-18_0.mrc 1.731075 area12_ts_001/3 49.71128499328486 56.45923205114216 32.07110651411047 0.0 0.0 1 36.0 -18.0335 1
30543.86567953838 31668.987923538378 79.088429 000028@Extract/job193/Subtomograms/area12_ts_001/3_stack2d.mrcs MotionCorr/job003/frames/area12_ts_001_001_00000_20_9.mrc 1.604759 area12_ts_001/3 13.259048273556685 75.36916841892777 47.527453775494955 0.0 0.0 1 39.0 20.9487 1
29968.653250471198 30615.365003471197 95.640773 000029@Extract/job193/Subtomograms/area12_ts_001/3_stack2d.mrcs MotionCorr/job003/frames/area12_ts_001_001_00000_23_9.mrc 1.201806 area12_ts_001/3 10.851255653895004 77.42484030171696 48.03389190210736 0.0 0.0 1 42.0 23.9493 1
30809.014584117707 31526.295155117707 94.813841 000014@Extract/job193/Subtomograms/area12_ts_001/3_stack2d.mrcs MotionCorr/job003/frames/area12_ts_001_001_00000_-21_0.mrc 1.629376 area12_ts_001/3 52.850058349275734 55.54431694066903 30.349209405102506 0.0 0.0 1 45.0 -21.0236 1
30277.56246973753 30718.520864737533 121.549759 000013@Extract/job193/Subtomograms/area12_ts_001/3_stack2d.mrcs MotionCorr/job003/frames/area12_ts_001_001_00000_-24_0.mrc 1.244123 area12_ts_001/3 56.61964212303341 54.44315038966104 28.12796685404161 0.0 0.0 1 48.0 -24.0203 1
30982.263862282143 31506.816462282142 115.382481 000030@Extract/job193/Subtomograms/area12_ts_001/3_stack2d.mrcs MotionCorr/job003/frames/area12_ts_001_001_00000_26_9.mrc 0.325061 area12_ts_001/3 7.638959021862177 78.9357477254569 48.88514626132154 0.0 0.0 1 51.0 26.949 1
23932.065018277208 24893.715560277207 129.09351 000031@Extract/job193/Subtomograms/area12_ts_001/3_stack2d.mrcs MotionCorr/job003/frames/area12_ts_001_001_00000_29_9.mrc 0.485578 area12_ts_001/3 5.605773022611652 80.48778175543727 49.30794635086945 0.0 0.0 1 54.0 29.9486 1
31223.702956922105 32008.579443922106 91.702636 000012@Extract/job193/Subtomograms/area12_ts_001/3_stack2d.mrcs MotionCorr/job003/frames/area12_ts_001_001_00000_-27_0.mrc 1.278149 area12_ts_001/3 59.81120463127373 53.861524670266526 26.329458273802896 0.0 0.0 1 57.0 -27.0254 1
31371.61628858832 32349.82337458832 82.445 000011@Extract/job193/Subtomograms/area12_ts_001/3_stack2d.mrcs MotionCorr/job003/frames/area12_ts_001_001_00000_-30_0.mrc 1.109304 area12_ts_001/3 63.50911212381137 52.96606060731643 24.07839637710849 0.0 0.0 1 60.0 -30.0185 1
30944.713099125023 31400.858972125025 47.5691 000032@Extract/job193/Subtomograms/area12_ts_001/3_stack2d.mrcs MotionCorr/job003/frames/area12_ts_001_001_00000_32_9.mrc 0.359618 area12_ts_001/3 3.1846999013478694 82.60527198982672 49.55179088745993 0.0 0.0 1 63.0 32.9482 1
29448.601856894147 29832.974675894147 92.729533 000033@Extract/job193/Subtomograms/area12_ts_001/3_stack2d.mrcs MotionCorr/job003/frames/area12_ts_001_001_00000_35_9.mrc 0.370518 area12_ts_001/3 0.8363181259493903 84.57927717343406 49.77325003662359 0.0 0.0 1 66.0 35.9489 1
32295.75373700094 33174.67870400094 113.918249 000010@Extract/job193/Subtomograms/area12_ts_001/3_stack2d.mrcs MotionCorr/job003/frames/area12_ts_001_001_00000_-33_0.mrc 1.186678 area12_ts_001/3 66.95003890589014 52.38209282278052 21.999253481286456 0.0 0.0 1 69.0 -33.0127 1
32476.26118521852 33363.26799321852 94.947513 000009@Extract/job193/Subtomograms/area12_ts_001/3_stack2d.mrcs MotionCorr/job003/frames/area12_ts_001_001_00000_-36_0.mrc 1.02662 area12_ts_001/3 70.87385240137499 51.695496675319525 19.564771239149554 0.0 0.0 1 72.0 -36.0128 1
30931.878166483097 31497.133389483097 74.996804 000034@Extract/job193/Subtomograms/area12_ts_001/3_stack2d.mrcs MotionCorr/job003/frames/area12_ts_001_001_00000_38_9.mrc 0.380531 area12_ts_001/3 -1.4671668832519495 86.64391191858253 49.90900568610053 0.0 0.0 1 75.0 38.9485 1
29717.935597637017 30351.300885637018 98.31695 000035@Extract/job193/Subtomograms/area12_ts_001/3_stack2d.mrcs MotionCorr/job003/frames/area12_ts_001_001_00000_41_9.mrc 0.332945 area12_ts_001/3 -3.7734132467898363 88.65285054880279 49.93540260276485 0.0 0.0 1 78.0 41.9486 1
34617.64218697756 34955.97337997756 117.81293 000008@Extract/job193/Subtomograms/area12_ts_001/3_stack2d.mrcs MotionCorr/job003/frames/area12_ts_001_001_00000_-39_0.mrc 0.936149 area12_ts_001/3 74.28684811565873 51.42580757508042 17.44583054756825 0.0 0.0 1 81.0 -39.0119 1
35595.76288612057 36128.16996112056 90.465073 000007@Extract/job193/Subtomograms/area12_ts_001/3_stack2d.mrcs MotionCorr/job003/frames/area12_ts_001_001_00000_-42_0.mrc 1.047425 area12_ts_001/3 78.52876374250214 50.91709318296565 14.720133117128466 0.0 0.0 1 84.0 -42.0111 1
30579.84409428975 30994.11448328975 76.257192 000036@Extract/job193/Subtomograms/area12_ts_001/3_stack2d.mrcs MotionCorr/job003/frames/area12_ts_001_001_00000_44_9.mrc 0.3277 area12_ts_001/3 -5.977046024701144 90.49945874238418 49.929676145926805 0.0 0.0 1 87.0 44.9483 1
30141.70483574666 30401.82730474666 100.989277 000037@Extract/job193/Subtomograms/area12_ts_001/3_stack2d.mrcs MotionCorr/job003/frames/area12_ts_001_001_00000_47_9.mrc 0.232253 area12_ts_001/3 -8.341043500648547 92.43378334619312 49.88148204724394 0.0 0.0 1 90.0 47.9484 1
36585.36437458586 36793.09048458585 83.283049 000006@Extract/job193/Subtomograms/area12_ts_001/3_stack2d.mrcs MotionCorr/job003/frames/area12_ts_001_001_00000_-45_0.mrc 0.956975 area12_ts_001/3 82.31824228616968 50.73032765361593 12.330606275490481 0.0 0.0 1 93.0 -45.0047 1
37041.00231543725 37590.57982443724 96.766369 000005@Extract/job193/Subtomograms/area12_ts_001/3_stack2d.mrcs MotionCorr/job003/frames/area12_ts_001_001_00000_-48_0.mrc 0.790727 area12_ts_001/3 86.25764028064013 50.67276250312788 9.800841162730848 0.0 0.0 1 96.0 -48.0058 1
31664.01972921889 31980.52406721889 122.965717 000038@Extract/job193/Subtomograms/area12_ts_001/3_stack2d.mrcs MotionCorr/job003/frames/area12_ts_001_001_00000_50_9.mrc 0.077142 area12_ts_001/3 -11.378634518315646 94.35682867433418 50.1245739189904 0.0 0.0 1 99.0 50.9485 1
31235.5332626442 31645.9033276442 100.147964 000039@Extract/job193/Subtomograms/area12_ts_001/3_stack2d.mrcs MotionCorr/job003/frames/area12_ts_001_001_00000_53_9.mrc 0.204806 area12_ts_001/3 -13.235525960858249 96.34040409779058 49.60928114163632 0.0 0.0 1 102.0 53.9487 1
