# Created 2026-03-21 10:39:12.674376

data_

loop_
_rlnMicrographMovieName
_rlnTomoTiltMovieFrameCount
_rlnTomoNominalStageTiltAngle
_rlnTomoNominalTiltAxisAngle
_rlnMicrographPreExposure
_rlnTomoNominalDefocus
_rlnCtfPowerSpectrum
_rlnMicrographName
_rlnMicrographMetadata
_rlnAccumMotionTotal
_rlnAccumMotionEarly
_rlnAccumMotionLate
_rlnCtfImage
_rlnDefocusU
_rlnDefocusV
_rlnCtfAstigmatism
_rlnDefocusAngle
_rlnCtfFigureOfMerit
_rlnCtfMaxResolution
_rlnCtfIceRingDensity
_rlnTomoXTilt
_rlnTomoYTilt
_rlnTomoZRot
_rlnTomoXShiftAngst
_rlnTomoYShiftAngst
_rlnCtfScalefactor
frames/area12_ts_001_001_00000_-60.0.eer 189 -59.99990 79.000000 120.000000 -3.00000 MotionCorr/job003/frames/area12_ts_001_001_00000_-60_0_PS.mrc MotionCorr/job003/frames/area12_ts_001_001_00000_-60_0.mrc MotionCorr/job003/frames/area12_ts_001_001_00000_-60_0.star 1.830833 0.000000 1.830833 CtfFind/job004/frames/area12_ts_001_001_00000_-60_0_PS.ctf:mrc 25017.276786 25411.355117 73.339844 100.773735 0.123876 25.000000 0.909080 0.258679 -59.79111 78.153481 192.652252 268.674420 0.206171
frames/area12_ts_001_001_00000_-57.0.eer 189 -57.00020 79.000000 117.000000 -3.00000 MotionCorr/job003/frames/area12_ts_001_001_00000_-57_0_PS.mrc MotionCorr/job003/frames/area12_ts_001_001_00000_-57_0.mrc MotionCorr/job003/frames/area12_ts_001_001_00000_-57_0.star 2.126608 0.000000 2.126608 CtfFind/job004/frames/area12_ts_001_001_00000_-57_0_PS.ctf:mrc 21983.776503 22287.667281 32.097656 94.130642 0.075273 25.000000 2.248580 1.286686 -56.74505 77.682367 57.694132 1249.377714 0.560086
frames/area12_ts_001_001_00000_-54.0.eer 189 -54.00360 79.000000 108.000000 -3.00000 MotionCorr/job003/frames/area12_ts_001_001_00000_-54_0_PS.mrc MotionCorr/job003/frames/area12_ts_001_001_00000_-54_0.mrc MotionCorr/job003/frames/area12_ts_001_001_00000_-54_0.star 0.808028 0.000000 0.808028 CtfFind/job004/frames/area12_ts_001_001_00000_-54_0_PS.ctf:mrc 40463.708271 40844.600121 130.484375 90.635857 0.136258 14.058305 0.592360 1.275604 -53.70031 77.758310 436.534811 1345.827620 0.642336
frames/area12_ts_001_001_00000_-51.0.eer 189 -51.00300 79.000000 105.000000 -3.00000 MotionCorr/job003/frames/area12_ts_001_001_00000_-51_0_PS.mrc MotionCorr/job003/frames/area12_ts_001_001_00000_-51_0.mrc MotionCorr/job003/frames/area12_ts_001_001_00000_-51_0.star 1.933557 0.000000 1.933557 CtfFind/job004/frames/area12_ts_001_001_00000_-51_0_PS.ctf:mrc 39276.383400 39472.119932 40.351562 103.455634 0.102183 13.165714 0.745900 1.199656 -50.72391 77.911350 -5.18727 1123.258303 0.638712
frames/area12_ts_001_001_00000_-48.0.eer 189 -48.00580 79.000000 96.000000 -3.00000 MotionCorr/job003/frames/area12_ts_001_001_00000_-48_0_PS.mrc MotionCorr/job003/frames/area12_ts_001_001_00000_-48_0.mrc MotionCorr/job003/frames/area12_ts_001_001_00000_-48_0.star 0.592396 0.000000 0.592396 CtfFind/job004/frames/area12_ts_001_001_00000_-48_0_PS.ctf:mrc 38112.442301 38662.019810 452.894531 96.766369 0.085951 14.551579 0.812060 1.018024 -47.72086 78.039626 313.648574 710.394161 0.790727
frames/area12_ts_001_001_00000_-45.0.eer 189 -45.00470 79.000000 93.000000 -3.00000 MotionCorr/job003/frames/area12_ts_001_001_00000_-45_0_PS.mrc MotionCorr/job003/frames/area12_ts_001_001_00000_-45_0.mrc MotionCorr/job003/frames/area12_ts_001_001_00000_-45_0.star 1.100670 0.000000 1.100670 CtfFind/job004/frames/area12_ts_001_001_00000_-45_0_PS.ctf:mrc 37649.523258 37857.249368 55.714844 83.283049 0.106064 12.567273 0.911180 0.868986 -44.67377 78.113110 -225.29181 -240.34292 0.956975
frames/area12_ts_001_001_00000_-42.0.eer 189 -42.01110 79.000000 84.000000 -3.00000 MotionCorr/job003/frames/area12_ts_001_001_00000_-42_0_PS.mrc MotionCorr/job003/frames/area12_ts_001_001_00000_-42_0.mrc MotionCorr/job003/frames/area12_ts_001_001_00000_-42_0.star 0.634773 0.000000 0.634773 CtfFind/job004/frames/area12_ts_001_001_00000_-42_0_PS.ctf:mrc 36650.264040 37182.671115 299.941406 90.465073 0.044485 13.824000 1.431710 0.731704 -41.73213 78.211969 172.757992 -21.43046 1.047425
frames/area12_ts_001_001_00000_-39.0.eer 189 -39.01190 79.000000 81.000000 -3.00000 MotionCorr/job003/frames/area12_ts_001_001_00000_-39_0_PS.mrc MotionCorr/job003/frames/area12_ts_001_001_00000_-39_0.mrc MotionCorr/job003/frames/area12_ts_001_001_00000_-39_0.star 0.612326 0.000000 0.612326 CtfFind/job004/frames/area12_ts_001_001_00000_-39_0_PS.ctf:mrc 35663.932537 36002.263730 239.074219 117.812930 0.122668 9.644651 0.860910 0.398288 -38.39871 78.361381 -377.22062 -1271.44548 0.936149
frames/area12_ts_001_001_00000_-36.0.eer 189 -36.01280 79.000000 72.000000 -3.00000 MotionCorr/job003/frames/area12_ts_001_001_00000_-36_0_PS.mrc MotionCorr/job003/frames/area12_ts_001_001_00000_-36_0.mrc MotionCorr/job003/frames/area12_ts_001_001_00000_-36_0.star 0.877833 0.000000 0.877833 CtfFind/job004/frames/area12_ts_001_001_00000_-36_0_PS.ctf:mrc 33503.143561 34390.150369 668.183594 94.947513 0.078210 9.874286 0.615740 0.462326 -35.71250 78.326043 202.091802 259.460616 1.026620
frames/area12_ts_001_001_00000_-33.0.eer 189 -33.01270 79.000000 69.000000 -3.00000 MotionCorr/job003/frames/area12_ts_001_001_00000_-33_0_PS.mrc MotionCorr/job003/frames/area12_ts_001_001_00000_-33_0.mrc MotionCorr/job003/frames/area12_ts_001_001_00000_-33_0.star 0.589219 0.000000 0.589219 CtfFind/job004/frames/area12_ts_001_001_00000_-33_0_PS.ctf:mrc 33306.893542 34185.818509 436.812500 113.918249 0.053556 7.680000 0.646830 0.238813 -32.54926 78.431295 -161.87661 -120.30993 1.186678
frames/area12_ts_001_001_00000_-30.0.eer 189 -30.01850 79.000000 60.000000 -3.00000 MotionCorr/job003/frames/area12_ts_001_001_00000_-30_0_PS.mrc MotionCorr/job003/frames/area12_ts_001_001_00000_-30_0.mrc MotionCorr/job003/frames/area12_ts_001_001_00000_-30_0.star 1.632501 0.000000 1.632501 CtfFind/job004/frames/area12_ts_001_001_00000_-30_0_PS.ctf:mrc 32360.901276 33339.108362 494.089844 82.445000 0.053066 8.550928 0.747260 0.206776 -29.75173 78.455553 336.816314 1167.900406 1.109304
frames/area12_ts_001_001_00000_-27.0.eer 189 -27.02540 79.000000 57.000000 -3.00000 MotionCorr/job003/frames/area12_ts_001_001_00000_-27_0_PS.mrc MotionCorr/job003/frames/area12_ts_001_001_00000_-27_0.mrc MotionCorr/job003/frames/area12_ts_001_001_00000_-27_0.star 1.272431 0.000000 1.272431 CtfFind/job004/frames/area12_ts_001_001_00000_-27_0_PS.ctf:mrc 32191.696030 32976.572517 322.007812 91.702636 0.075740 7.680000 0.950040 0.016793 -26.65514 78.498941 51.664505 928.524179 1.278149
frames/area12_ts_001_001_00000_-24.0.eer 189 -24.02030 79.000000 48.000000 -3.00000 MotionCorr/job003/frames/area12_ts_001_001_00000_-24_0_PS.mrc MotionCorr/job003/frames/area12_ts_001_001_00000_-24_0.mrc MotionCorr/job003/frames/area12_ts_001_001_00000_-24_0.star 4.512331 0.000000 4.512331 CtfFind/job004/frames/area12_ts_001_001_00000_-24_0_PS.ctf:mrc 31213.636195 31654.594590 126.906250 121.549759 0.021297 7.150345 0.723620 0.173473 -24.00748 78.502802 356.799304 1607.598945 1.244123
frames/area12_ts_001_001_00000_-21.0.eer 189 -21.02360 79.000000 45.000000 -3.00000 MotionCorr/job003/frames/area12_ts_001_001_00000_-21_0_PS.mrc MotionCorr/job003/frames/area12_ts_001_001_00000_-21_0.mrc MotionCorr/job003/frames/area12_ts_001_001_00000_-21_0.star 0.797735 0.000000 0.797735 CtfFind/job004/frames/area12_ts_001_001_00000_-21_0_PS.ctf:mrc 31714.231730 32431.512301 606.839844 94.813841 0.052081 8.131765 0.550100 0.056782 -20.73143 78.489093 -56.74251 40.623595 1.629376
frames/area12_ts_001_001_00000_-18.0.eer 189 -18.03350 79.000000 36.000000 -3.00000 MotionCorr/job003/frames/area12_ts_001_001_00000_-18_0_PS.mrc MotionCorr/job003/frames/area12_ts_001_001_00000_-18_0.mrc MotionCorr/job003/frames/area12_ts_001_001_00000_-18_0.star 0.917035 0.000000 0.917035 CtfFind/job004/frames/area12_ts_001_001_00000_-18_0_PS.ctf:mrc 31526.453909 32283.583987 913.392578 88.740582 0.057936 5.967194 0.625390 0.074463 -17.97327 78.516792 79.422098 382.469939 1.731075
frames/area12_ts_001_001_00000_-15.0.eer 189 -15.03340 79.000000 33.000000 -3.00000 MotionCorr/job003/frames/area12_ts_001_001_00000_-15_0_PS.mrc MotionCorr/job003/frames/area12_ts_001_001_00000_-15_0.mrc MotionCorr/job003/frames/area12_ts_001_001_00000_-15_0.star 0.699029 0.000000 0.699029 CtfFind/job004/frames/area12_ts_001_001_00000_-15_0_PS.ctf:mrc 31453.210730 32085.301546 843.173828 108.983722 0.068960 7.340177 1.217560 -0.20423 -14.28617 78.553674 -213.11819 -1128.50688 1.709505
frames/area12_ts_001_001_00000_-12.0.eer 189 -12.04370 79.000000 24.000000 -3.00000 MotionCorr/job003/frames/area12_ts_001_001_00000_-12_0_PS.mrc MotionCorr/job003/frames/area12_ts_001_001_00000_-12_0.mrc MotionCorr/job003/frames/area12_ts_001_001_00000_-12_0.star 0.616606 0.000000 0.616606 CtfFind/job004/frames/area12_ts_001_001_00000_-12_0_PS.ctf:mrc 31254.494778 32014.218955 812.505859 87.269572 0.078103 5.800280 0.829020 0.295269 -12.01928 78.499892 -64.00086 -348.49565 2.302530
frames/area12_ts_001_001_00000_-9.0.eer 189 -9.04012 79.000000 21.000000 -3.00000 MotionCorr/job003/frames/area12_ts_001_001_00000_-9_0_PS.mrc MotionCorr/job003/frames/area12_ts_001_001_00000_-9_0.mrc MotionCorr/job003/frames/area12_ts_001_001_00000_-9_0.star 0.665897 0.000000 0.665897 CtfFind/job004/frames/area12_ts_001_001_00000_-9_0_PS.ctf:mrc 30334.877028 31421.552907 642.054688 93.300276 0.088029 5.529600 0.557110 0.345474 -8.98543 78.517936 -141.59123 -913.94056 2.036628
frames/area12_ts_001_001_00000_-6.0.eer 189 -6.04548 79.000000 12.000000 -3.00000 MotionCorr/job003/frames/area12_ts_001_001_00000_-6_0_PS.mrc MotionCorr/job003/frames/area12_ts_001_001_00000_-6_0.mrc MotionCorr/job003/frames/area12_ts_001_001_00000_-6_0.star 0.802885 0.000000 0.802885 CtfFind/job004/frames/area12_ts_001_001_00000_-6_0_PS.ctf:mrc 30739.329427 31524.551821 318.533203 89.253417 0.080567 5.184000 0.926980 0.290525 -5.88273 78.547556 -118.89141 -475.93827 2.405290
frames/area12_ts_001_001_00000_-3.0.eer 189 -3.03735 79.000000 9.000000 -3.00000 MotionCorr/job003/frames/area12_ts_001_001_00000_-3_0_PS.mrc MotionCorr/job003/frames/area12_ts_001_001_00000_-3_0.mrc MotionCorr/job003/frames/area12_ts_001_001_00000_-3_0.star 1.049391 0.000000 1.049391 CtfFind/job004/frames/area12_ts_001_001_00000_-3_0_PS.ctf:mrc 30314.360270 31198.328443 617.126953 77.849839 0.069843 6.098824 0.693700 0.094603 -2.75991 78.562789 30.230868 248.659461 2.348670
frames/area12_ts_001_001_00000_-0.0.eer 189 -0.04372 79.000000 0.000000 -3.00000 MotionCorr/job003/frames/area12_ts_001_001_00000_-0_0_PS.mrc MotionCorr/job003/frames/area12_ts_001_001_00000_-0_0.mrc MotionCorr/job003/frames/area12_ts_001_001_00000_-0_0.star 0.630837 0.630837 0.000000 CtfFind/job004/frames/area12_ts_001_001_00000_-0_0_PS.ctf:mrc 30814.449562 31704.747342 507.873047 84.256200 0.106937 4.006957 1.039380 0.114710 -0.18623 78.573557 -0.62635 5.698448 2.634708
frames/area12_ts_001_001_00000_2.9.eer 189 2.948910 79.000000 3.000000 -3.00000 MotionCorr/job003/frames/area12_ts_001_001_00000_2_9_PS.mrc MotionCorr/job003/frames/area12_ts_001_001_00000_2_9.mrc MotionCorr/job003/frames/area12_ts_001_001_00000_2_9.star 1.036617 0.000000 1.036617 CtfFind/job004/frames/area12_ts_001_001_00000_2_9_PS.ctf:mrc 30659.191298 31808.937984 654.818359 87.272206 0.095342 3.968612 1.032650 -0.27185 3.141699 78.566275 78.044436 516.414595 2.392987
frames/area12_ts_001_001_00000_5.9.eer 189 5.949050 79.000000 6.000000 -3.00000 MotionCorr/job003/frames/area12_ts_001_001_00000_5_9_PS.mrc MotionCorr/job003/frames/area12_ts_001_001_00000_5_9.mrc MotionCorr/job003/frames/area12_ts_001_001_00000_5_9.star 0.853892 0.000000 0.853892 CtfFind/job004/frames/area12_ts_001_001_00000_5_9_PS.ctf:mrc 30673.482456 31566.879396 462.478516 90.706927 0.091427 4.388571 0.744980 -0.30017 5.898357 78.564258 -14.05053 -223.51455 2.558831
frames/area12_ts_001_001_00000_8.9.eer 189 8.949180 79.000000 15.000000 -3.00000 MotionCorr/job003/frames/area12_ts_001_001_00000_8_9_PS.mrc MotionCorr/job003/frames/area12_ts_001_001_00000_8_9.mrc MotionCorr/job003/frames/area12_ts_001_001_00000_8_9.star 0.830579 0.000000 0.830579 CtfFind/job004/frames/area12_ts_001_001_00000_8_9_PS.ctf:mrc 31600.521962 32263.349964 578.318359 83.890170 0.093361 4.507826 0.809630 -0.40243 8.891887 78.558508 106.104764 309.240855 2.606361
frames/area12_ts_001_001_00000_11.9.eer 189 11.949300 79.000000 18.000000 -3.00000 MotionCorr/job003/frames/area12_ts_001_001_00000_11_9_PS.mrc MotionCorr/job003/frames/area12_ts_001_001_00000_11_9.mrc MotionCorr/job003/frames/area12_ts_001_001_00000_11_9.star 1.225242 0.000000 1.225242 CtfFind/job004/frames/area12_ts_001_001_00000_11_9_PS.ctf:mrc 31011.933245 31660.983271 684.667969 85.976241 0.084727 5.283057 0.574820 -0.44554 11.852404 78.552914 53.372806 386.677508 2.407773
frames/area12_ts_001_001_00000_14.9.eer 189 14.949400 79.000000 27.000000 -3.00000 MotionCorr/job003/frames/area12_ts_001_001_00000_14_9_PS.mrc MotionCorr/job003/frames/area12_ts_001_001_00000_14_9.mrc MotionCorr/job003/frames/area12_ts_001_001_00000_14_9.star 13.839641 0.000000 13.839641 CtfFind/job004/frames/area12_ts_001_001_00000_14_9_PS.ctf:mrc 32047.047462 32401.650173 275.734375 52.975154 0.020197 9.993253 0.597050 -0.19515 13.927142 78.577088 173.330621 920.271891 1.374583
frames/area12_ts_001_001_00000_17.9.eer 189 17.949600 79.000000 30.000000 -3.00000 MotionCorr/job003/frames/area12_ts_001_001_00000_17_9_PS.mrc MotionCorr/job003/frames/area12_ts_001_001_00000_17_9.mrc MotionCorr/job003/frames/area12_ts_001_001_00000_17_9.star 2.656996 0.000000 2.656996 CtfFind/job004/frames/area12_ts_001_001_00000_17_9_PS.ctf:mrc 30715.864527 31548.613958 741.841797 73.865147 0.029690 8.294400 0.746020 -0.02849 16.484909 78.586196 -9.67001 55.678581 1.615593
frames/area12_ts_001_001_00000_20.9.eer 189 20.948700 79.000000 39.000000 -3.00000 MotionCorr/job003/frames/area12_ts_001_001_00000_20_9_PS.mrc MotionCorr/job003/frames/area12_ts_001_001_00000_20_9.mrc MotionCorr/job003/frames/area12_ts_001_001_00000_20_9.star 0.339891 0.000000 0.339891 CtfFind/job004/frames/area12_ts_001_001_00000_20_9_PS.ctf:mrc 30818.374989 31943.497233 518.494141 79.088429 0.059835 7.751776 1.169530 -0.12753 20.004300 78.572492 16.091351 197.123130 1.604759
frames/area12_ts_001_001_00000_23.9.eer 189 23.949300 79.000000 42.000000 -3.00000 MotionCorr/job003/frames/area12_ts_001_001_00000_23_9_PS.mrc MotionCorr/job003/frames/area12_ts_001_001_00000_23_9.mrc MotionCorr/job003/frames/area12_ts_001_001_00000_23_9.star 0.777939 0.000000 0.777939 CtfFind/job004/frames/area12_ts_001_001_00000_23_9_PS.ctf:mrc 30195.076720 30841.788473 697.707031 95.640773 0.067530 6.743415 1.130830 -0.41707 23.107417 78.526101 -216.59398 -1285.48190 1.201806
frames/area12_ts_001_001_00000_26.9.eer 189 26.949000 79.000000 51.000000 -3.00000 MotionCorr/job003/frames/area12_ts_001_001_00000_26_9_PS.mrc MotionCorr/job003/frames/area12_ts_001_001_00000_26_9.mrc MotionCorr/job003/frames/area12_ts_001_001_00000_26_9.star 8.560523 0.000000 8.560523 CtfFind/job004/frames/area12_ts_001_001_00000_26_9_PS.ctf:mrc 31115.470719 31640.023319 397.572266 115.382481 0.011208 11.208649 1.182160 0.341712 26.527052 78.651678 -144.51246 -460.40946 0.325061
frames/area12_ts_001_001_00000_29.9.eer 189 29.948600 79.000000 54.000000 -3.00000 MotionCorr/job003/frames/area12_ts_001_001_00000_29_9_PS.mrc MotionCorr/job003/frames/area12_ts_001_001_00000_29_9.mrc MotionCorr/job003/frames/area12_ts_001_001_00000_29_9.star 2.023871 0.000000 2.023871 CtfFind/job004/frames/area12_ts_001_001_00000_29_9_PS.ctf:mrc 24016.926392 24978.576934 820.962891 129.093510 0.027166 6.144000 1.873140 0.337517 29.058948 78.590119 -175.63549 -1060.03884 0.485578
frames/area12_ts_001_001_00000_32.9.eer 189 32.948200 79.000000 63.000000 -3.00000 MotionCorr/job003/frames/area12_ts_001_001_00000_32_9_PS.mrc MotionCorr/job003/frames/area12_ts_001_001_00000_32_9.mrc MotionCorr/job003/frames/area12_ts_001_001_00000_32_9.star 0.742433 0.000000 0.742433 CtfFind/job004/frames/area12_ts_001_001_00000_32_9_PS.ctf:mrc 30975.889182 31432.035055 565.779297 47.569100 0.072713 9.114725 0.827610 0.113367 32.249686 78.587971 49.992428 548.791475 0.359618
frames/area12_ts_001_001_00000_35.9.eer 189 35.948900 79.000000 66.000000 -3.00000 MotionCorr/job003/frames/area12_ts_001_001_00000_35_9_PS.mrc MotionCorr/job003/frames/area12_ts_001_001_00000_35_9.mrc MotionCorr/job003/frames/area12_ts_001_001_00000_35_9.star 0.761195 0.000000 0.761195 CtfFind/job004/frames/area12_ts_001_001_00000_35_9_PS.ctf:mrc 29424.909148 29809.281967 178.003906 92.729533 0.063570 11.059200 0.705090 -0.01405 35.304375 78.557809 -86.85714 -501.28997 0.370518
frames/area12_ts_001_001_00000_38.9.eer 189 38.948500 79.000000 75.000000 -3.00000 MotionCorr/job003/frames/area12_ts_001_001_00000_38_9_PS.mrc MotionCorr/job003/frames/area12_ts_001_001_00000_38_9.mrc MotionCorr/job003/frames/area12_ts_001_001_00000_38_9.star 0.534893 0.000000 0.534893 CtfFind/job004/frames/area12_ts_001_001_00000_38_9_PS.ctf:mrc 30856.165833 31421.421056 473.425781 74.996804 0.082029 9.425455 0.756060 -0.25646 38.386501 78.452946 -88.33179 -122.47622 0.380531
frames/area12_ts_001_001_00000_41.9.eer 189 41.948600 79.000000 78.000000 -3.00000 MotionCorr/job003/frames/area12_ts_001_001_00000_41_9_PS.mrc MotionCorr/job003/frames/area12_ts_001_001_00000_41_9.mrc MotionCorr/job003/frames/area12_ts_001_001_00000_41_9.star 0.629798 0.000000 0.629798 CtfFind/job004/frames/area12_ts_001_001_00000_41_9_PS.ctf:mrc 29588.728600 30222.093888 387.841797 98.316950 0.089466 11.520000 0.716460 -0.44619 41.440014 78.399427 -78.43594 -467.59188 0.332945
frames/area12_ts_001_001_00000_44.9.eer 189 44.948300 79.000000 87.000000 -3.00000 MotionCorr/job003/frames/area12_ts_001_001_00000_44_9_PS.mrc MotionCorr/job003/frames/area12_ts_001_001_00000_44_9.mrc MotionCorr/job003/frames/area12_ts_001_001_00000_44_9.star 0.909569 0.000000 0.909569 CtfFind/job004/frames/area12_ts_001_001_00000_44_9_PS.ctf:mrc 30398.247591 30812.517980 257.783203 76.257192 0.061643 12.197647 0.883200 -0.55942 44.313756 78.344390 -68.90212 266.398952 0.327700
frames/area12_ts_001_001_00000_47.9.eer 189 47.948400 79.000000 90.000000 -3.00000 MotionCorr/job003/frames/area12_ts_001_001_00000_47_9_PS.mrc MotionCorr/job003/frames/area12_ts_001_001_00000_47_9.mrc MotionCorr/job003/frames/area12_ts_001_001_00000_47_9.star 0.383774 0.000000 0.383774 CtfFind/job004/frames/area12_ts_001_001_00000_47_9_PS.ctf:mrc 29903.573037 30163.695506 64.027344 100.989277 0.082706 12.760615 1.693390 -0.64213 47.367047 78.272704 -86.59621 -724.79470 0.232253
frames/area12_ts_001_001_00000_50.9.eer 189 50.948500 79.000000 99.000000 -3.00000 MotionCorr/job003/frames/area12_ts_001_001_00000_50_9_PS.mrc MotionCorr/job003/frames/area12_ts_001_001_00000_50_9.mrc MotionCorr/job003/frames/area12_ts_001_001_00000_50_9.star 0.285318 0.000000 0.285318 CtfFind/job004/frames/area12_ts_001_001_00000_50_9_PS.ctf:mrc 31343.517413 31660.021751 192.537109 122.965717 0.113635 12.760615 0.868590 -0.07769 50.938567 78.276828 -260.45599 -404.66649 0.077142
frames/area12_ts_001_001_00000_53.9.eer 189 53.948700 79.000000 102.000000 -3.00000 MotionCorr/job003/frames/area12_ts_001_001_00000_53_9_PS.mrc MotionCorr/job003/frames/area12_ts_001_001_00000_53_9.mrc MotionCorr/job003/frames/area12_ts_001_001_00000_53_9.star 0.242308 0.000000 0.242308 CtfFind/job004/frames/area12_ts_001_001_00000_53_9_PS.ctf:mrc 30882.106002 31292.476067 68.263672 100.147964 0.111323 15.950769 1.478440 -0.76851 53.616972 78.072408 -149.94672 -1016.44966 0.204806
frames/area12_ts_001_001_00000_56.9.eer 189 56.948300 79.000000 111.000000 -3.00000 MotionCorr/job003/frames/area12_ts_001_001_00000_56_9_PS.mrc MotionCorr/job003/frames/area12_ts_001_001_00000_56_9.mrc MotionCorr/job003/frames/area12_ts_001_001_00000_56_9.star 0.579476 0.000000 0.579476 CtfFind/job004/frames/area12_ts_001_001_00000_56_9_PS.ctf:mrc 31054.535572 31350.904467 19.361328 94.239078 0.170783 14.811429 1.313740 -0.78643 56.588632 78.027971 -281.84412 -311.08005 0.053167
frames/area12_ts_001_001_00000_59.9.eer 189 59.947900 79.000000 114.000000 -3.00000 MotionCorr/job003/frames/area12_ts_001_001_00000_59_9_PS.mrc MotionCorr/job003/frames/area12_ts_001_001_00000_59_9.mrc MotionCorr/job003/frames/area12_ts_001_001_00000_59_9.star 0.393828 0.000000 0.393828 CtfFind/job004/frames/area12_ts_001_001_00000_59_9_PS.ctf:mrc 30339.670090 30804.207697 166.939453 102.040392 0.127809 16.263529 1.457660 -0.09722 59.813512 78.550226 -107.80258 -576.40531 -0.02757
