# Created 2026-03-21 10:39:12.677002

data_

loop_
_rlnMicrographMovieName
_rlnTomoTiltMovieFrameCount
_rlnTomoNominalStageTiltAngle
_rlnTomoNominalTiltAxisAngle
_rlnMicrographPreExposure
_rlnTomoNominalDefocus
_rlnCtfPowerSpectrum
_rlnMicrographName
_rlnMicrographMetadata
_rlnAccumMotionTotal
_rlnAccumMotionEarly
_rlnAccumMotionLate
_rlnCtfImage
_rlnDefocusU
_rlnDefocusV
_rlnCtfAstigmatism
_rlnDefocusAngle
_rlnCtfFigureOfMerit
_rlnCtfMaxResolution
_rlnCtfIceRingDensity
_rlnTomoXTilt
_rlnTomoYTilt
_rlnTomoZRot
_rlnTomoXShiftAngst
_rlnTomoYShiftAngst
_rlnCtfScalefactor
frames/area12_ts_002_001_00000_-60.0.eer 189 -59.99990 79.000000 120.000000 -3.00000 MotionCorr/job003/frames/area12_ts_002_001_00000_-60_0_PS.mrc MotionCorr/job003/frames/area12_ts_002_001_00000_-60_0.mrc MotionCorr/job003/frames/area12_ts_002_001_00000_-60_0.star 0.511683 0.000000 0.511683 CtfFind/job004/frames/area12_ts_002_001_00000_-60_0_PS.ctf:mrc 39156.059668 39476.602163 89.640625 95.031324 0.187968 13.824000 0.822170 0.371407 -60.17709 79.721677 29.622201 401.230326 -0.02156
frames/area12_ts_002_001_00000_-57.0.eer 189 -57.00020 79.000000 117.000000 -3.00000 MotionCorr/job003/frames/area12_ts_002_001_00000_-57_0_PS.mrc MotionCorr/job003/frames/area12_ts_002_001_00000_-57_0.mrc MotionCorr/job003/frames/area12_ts_002_001_00000_-57_0.star 0.604684 0.000000 0.604684 CtfFind/job004/frames/area12_ts_002_001_00000_-57_0_PS.ctf:mrc 39157.656445 39526.270832 105.527344 100.680900 0.172698 12.379702 1.249540 0.002067 -56.90774 79.666555 13.634204 326.207589 0.029142
frames/area12_ts_002_001_00000_-54.0.eer 189 -54.00360 79.000000 108.000000 -3.00000 MotionCorr/job003/frames/area12_ts_002_001_00000_-54_0_PS.mrc MotionCorr/job003/frames/area12_ts_002_001_00000_-54_0.mrc MotionCorr/job003/frames/area12_ts_002_001_00000_-54_0.star 0.617714 0.000000 0.617714 CtfFind/job004/frames/area12_ts_002_001_00000_-54_0_PS.ctf:mrc 37893.746084 38375.508917 179.933594 102.769315 0.170059 12.567273 0.967930 0.387126 -54.01815 79.830759 21.236692 381.590479 -0.03045
frames/area12_ts_002_001_00000_-51.0.eer 189 -51.00300 79.000000 105.000000 -3.00000 MotionCorr/job003/frames/area12_ts_002_001_00000_-51_0_PS.mrc MotionCorr/job003/frames/area12_ts_002_001_00000_-51_0.mrc MotionCorr/job003/frames/area12_ts_002_001_00000_-51_0.star 0.617362 0.000000 0.617362 CtfFind/job004/frames/area12_ts_002_001_00000_-51_0_PS.ctf:mrc 36416.753093 36928.790663 224.535156 86.162990 0.164149 11.208649 0.815480 0.568247 -51.15343 79.690671 23.106376 372.332779 -0.16934
frames/area12_ts_002_001_00000_-48.0.eer 189 -48.00580 79.000000 96.000000 -3.00000 MotionCorr/job003/frames/area12_ts_002_001_00000_-48_0_PS.mrc MotionCorr/job003/frames/area12_ts_002_001_00000_-48_0.mrc MotionCorr/job003/frames/area12_ts_002_001_00000_-48_0.star 0.711836 0.000000 0.711836 CtfFind/job004/frames/area12_ts_002_001_00000_-48_0_PS.ctf:mrc 34047.845343 34456.187060 47.417969 95.119443 0.123004 11.520000 1.222980 -0.61186 -48.51206 80.286369 41.368425 458.088930 0.018322
frames/area12_ts_002_001_00000_-45.0.eer 189 -45.00470 79.000000 93.000000 -3.00000 MotionCorr/job003/frames/area12_ts_002_001_00000_-45_0_PS.mrc MotionCorr/job003/frames/area12_ts_002_001_00000_-45_0.mrc MotionCorr/job003/frames/area12_ts_002_001_00000_-45_0.star 0.705877 0.000000 0.705877 CtfFind/job004/frames/area12_ts_002_001_00000_-45_0_PS.ctf:mrc 33614.938430 34298.410443 261.652344 94.994569 0.096515 11.362192 1.001930 0.041619 -44.84144 80.000402 38.825668 352.739263 0.011908
frames/area12_ts_002_001_00000_-42.0.eer 189 -42.01110 79.000000 84.000000 -3.00000 MotionCorr/job003/frames/area12_ts_002_001_00000_-42_0_PS.mrc MotionCorr/job003/frames/area12_ts_002_001_00000_-42_0.mrc MotionCorr/job003/frames/area12_ts_002_001_00000_-42_0.star 0.514307 0.000000 0.514307 CtfFind/job004/frames/area12_ts_002_001_00000_-42_0_PS.ctf:mrc 31974.177669 32422.209416 226.328125 88.489075 0.090371 10.913684 0.700550 -0.10885 -41.58569 80.103239 58.997677 469.649632 0.070087
frames/area12_ts_002_001_00000_-39.0.eer 189 -39.01190 79.000000 81.000000 -3.00000 MotionCorr/job003/frames/area12_ts_002_001_00000_-39_0_PS.mrc MotionCorr/job003/frames/area12_ts_002_001_00000_-39_0.mrc MotionCorr/job003/frames/area12_ts_002_001_00000_-39_0.star 0.631596 0.000000 0.631596 CtfFind/job004/frames/area12_ts_002_001_00000_-39_0_PS.ctf:mrc 31156.259675 31790.190916 253.970703 120.906935 0.114294 11.849143 0.976700 0.576208 -39.22261 79.588206 31.821474 377.832442 0.111534
frames/area12_ts_002_001_00000_-36.0.eer 189 -36.01280 79.000000 72.000000 -3.00000 MotionCorr/job003/frames/area12_ts_002_001_00000_-36_0_PS.mrc MotionCorr/job003/frames/area12_ts_002_001_00000_-36_0.mrc MotionCorr/job003/frames/area12_ts_002_001_00000_-36_0.star 0.245031 0.000000 0.245031 CtfFind/job004/frames/area12_ts_002_001_00000_-36_0_PS.ctf:mrc 30656.674779 31471.366042 441.236328 88.260499 0.076073 9.993253 0.861280 0.070185 -36.03667 79.901078 46.435463 381.979130 0.063433
frames/area12_ts_002_001_00000_-33.0.eer 189 -33.01270 79.000000 69.000000 -3.00000 MotionCorr/job003/frames/area12_ts_002_001_00000_-33_0_PS.mrc MotionCorr/job003/frames/area12_ts_002_001_00000_-33_0.mrc MotionCorr/job003/frames/area12_ts_002_001_00000_-33_0.star 0.387446 0.000000 0.387446 CtfFind/job004/frames/area12_ts_002_001_00000_-33_0_PS.ctf:mrc 30669.494829 31447.613887 521.417969 105.686514 0.082104 9.319551 0.895910 0.274340 -33.10551 79.885966 39.644690 309.816736 0.447913
frames/area12_ts_002_001_00000_-30.0.eer 189 -30.01850 79.000000 60.000000 -3.00000 MotionCorr/job003/frames/area12_ts_002_001_00000_-30_0_PS.mrc MotionCorr/job003/frames/area12_ts_002_001_00000_-30_0.mrc MotionCorr/job003/frames/area12_ts_002_001_00000_-30_0.star 0.349008 0.000000 0.349008 CtfFind/job004/frames/area12_ts_002_001_00000_-30_0_PS.ctf:mrc 30236.888099 30903.183058 537.841797 107.525919 0.073445 9.644651 0.637140 0.217706 -30.18665 79.893401 24.298900 304.833597 1.402642
frames/area12_ts_002_001_00000_-27.0.eer 189 -27.02540 79.000000 57.000000 -3.00000 MotionCorr/job003/frames/area12_ts_002_001_00000_-27_0_PS.mrc MotionCorr/job003/frames/area12_ts_002_001_00000_-27_0.mrc MotionCorr/job003/frames/area12_ts_002_001_00000_-27_0.star 0.307094 0.000000 0.307094 CtfFind/job004/frames/area12_ts_002_001_00000_-27_0_PS.ctf:mrc 30121.691200 31238.813933 464.160156 84.232632 0.075796 9.216000 0.589450 0.296821 -27.16928 79.889021 17.595623 220.096603 1.616152
frames/area12_ts_002_001_00000_-24.0.eer 189 -24.02030 79.000000 48.000000 -3.00000 MotionCorr/job003/frames/area12_ts_002_001_00000_-24_0_PS.mrc MotionCorr/job003/frames/area12_ts_002_001_00000_-24_0.mrc MotionCorr/job003/frames/area12_ts_002_001_00000_-24_0.star 0.461806 0.000000 0.461806 CtfFind/job004/frames/area12_ts_002_001_00000_-24_0_PS.ctf:mrc 30000.258604 30665.871940 388.345703 80.865578 0.054205 8.918710 0.645890 0.247262 -24.18431 79.915079 31.249592 255.984797 1.670518
frames/area12_ts_002_001_00000_-21.0.eer 189 -21.02360 79.000000 45.000000 -3.00000 MotionCorr/job003/frames/area12_ts_002_001_00000_-21_0_PS.mrc MotionCorr/job003/frames/area12_ts_002_001_00000_-21_0.mrc MotionCorr/job003/frames/area12_ts_002_001_00000_-21_0.star 0.533748 0.000000 0.533748 CtfFind/job004/frames/area12_ts_002_001_00000_-21_0_PS.ctf:mrc 29379.557444 30051.538537 488.638672 108.078246 0.053388 5.316923 0.928300 0.273886 -21.14503 79.915605 14.916290 214.064435 1.874490
frames/area12_ts_002_001_00000_-18.0.eer 189 -18.03350 79.000000 36.000000 -3.00000 MotionCorr/job003/frames/area12_ts_002_001_00000_-18_0_PS.mrc MotionCorr/job003/frames/area12_ts_002_001_00000_-18_0.mrc MotionCorr/job003/frames/area12_ts_002_001_00000_-18_0.star 0.332598 0.000000 0.332598 CtfFind/job004/frames/area12_ts_002_001_00000_-18_0_PS.ctf:mrc 29065.541674 30008.477003 811.564453 105.577269 0.073535 7.089231 0.932690 0.285983 -18.10115 79.919185 29.473097 214.115948 2.102013
frames/area12_ts_002_001_00000_-15.0.eer 189 -15.03340 79.000000 33.000000 -3.00000 MotionCorr/job003/frames/area12_ts_002_001_00000_-15_0_PS.mrc MotionCorr/job003/frames/area12_ts_002_001_00000_-15_0.mrc MotionCorr/job003/frames/area12_ts_002_001_00000_-15_0.star 0.430306 0.000000 0.430306 CtfFind/job004/frames/area12_ts_002_001_00000_-15_0_PS.ctf:mrc 28638.160164 29562.012120 721.070312 101.269952 0.071450 5.216604 0.912450 0.272165 -15.03220 79.940353 7.312238 150.278023 2.269086
frames/area12_ts_002_001_00000_-12.0.eer 189 -12.04370 79.000000 24.000000 -3.00000 MotionCorr/job003/frames/area12_ts_002_001_00000_-12_0_PS.mrc MotionCorr/job003/frames/area12_ts_002_001_00000_-12_0.mrc MotionCorr/job003/frames/area12_ts_002_001_00000_-12_0.star 0.487464 0.000000 0.487464 CtfFind/job004/frames/area12_ts_002_001_00000_-12_0_PS.ctf:mrc 29141.078161 29885.825961 558.722656 99.568789 0.069697 5.456842 0.664330 0.269396 -12.07752 79.944169 17.114976 162.349246 2.554923
frames/area12_ts_002_001_00000_-9.0.eer 189 -9.04012 79.000000 21.000000 -3.00000 MotionCorr/job003/frames/area12_ts_002_001_00000_-9_0_PS.mrc MotionCorr/job003/frames/area12_ts_002_001_00000_-9_0.mrc MotionCorr/job003/frames/area12_ts_002_001_00000_-9_0.star 0.405098 0.000000 0.405098 CtfFind/job004/frames/area12_ts_002_001_00000_-9_0_PS.ctf:mrc 28709.943262 29529.566230 590.068359 95.158042 0.101128 5.120000 0.630050 0.303160 -9.07531 79.949856 4.283243 113.786415 2.630988
frames/area12_ts_002_001_00000_-6.0.eer 189 -6.04548 79.000000 12.000000 -3.00000 MotionCorr/job003/frames/area12_ts_002_001_00000_-6_0_PS.mrc MotionCorr/job003/frames/area12_ts_002_001_00000_-6_0.mrc MotionCorr/job003/frames/area12_ts_002_001_00000_-6_0.star 0.345384 0.000000 0.345384 CtfFind/job004/frames/area12_ts_002_001_00000_-6_0_PS.ctf:mrc 29227.567465 29990.730297 592.945312 90.156932 0.096294 4.794451 0.616710 0.232531 -6.05415 79.968774 10.958614 116.025515 2.670355
frames/area12_ts_002_001_00000_-3.0.eer 189 -3.03735 79.000000 9.000000 -3.00000 MotionCorr/job003/frames/area12_ts_002_001_00000_-3_0_PS.mrc MotionCorr/job003/frames/area12_ts_002_001_00000_-3_0.mrc MotionCorr/job003/frames/area12_ts_002_001_00000_-3_0.star 0.452515 0.000000 0.452515 CtfFind/job004/frames/area12_ts_002_001_00000_-3_0_PS.ctf:mrc 29254.408302 29990.522708 685.261719 98.801368 0.102114 4.659775 0.987390 0.291630 -3.02623 79.973499 14.040583 85.631049 2.595322
frames/area12_ts_002_001_00000_-0.0.eer 189 -0.04372 79.000000 0.000000 -3.00000 MotionCorr/job003/frames/area12_ts_002_001_00000_-0_0_PS.mrc MotionCorr/job003/frames/area12_ts_002_001_00000_-0_0.mrc MotionCorr/job003/frames/area12_ts_002_001_00000_-0_0.star 0.329808 0.329808 0.000000 CtfFind/job004/frames/area12_ts_002_001_00000_-0_0_PS.ctf:mrc 29592.637183 30744.344576 643.085938 89.519791 0.114050 4.189091 1.027420 0.236914 -0.02241 79.980472 -1.42943 4.191791 2.458848
frames/area12_ts_002_001_00000_2.9.eer 189 2.948910 79.000000 3.000000 -3.00000 MotionCorr/job003/frames/area12_ts_002_001_00000_2_9_PS.mrc MotionCorr/job003/frames/area12_ts_002_001_00000_2_9.mrc MotionCorr/job003/frames/area12_ts_002_001_00000_2_9.star 0.465357 0.000000 0.465357 CtfFind/job004/frames/area12_ts_002_001_00000_2_9_PS.ctf:mrc 29964.083392 30871.714621 822.064453 91.905034 0.110157 4.189091 0.990140 -0.35671 2.690529 79.969807 5.402530 -70.69433 2.937256
frames/area12_ts_002_001_00000_5.9.eer 189 5.949050 79.000000 6.000000 -3.00000 MotionCorr/job003/frames/area12_ts_002_001_00000_5_9_PS.mrc MotionCorr/job003/frames/area12_ts_002_001_00000_5_9.mrc MotionCorr/job003/frames/area12_ts_002_001_00000_5_9.star 0.612251 0.000000 0.612251 CtfFind/job004/frames/area12_ts_002_001_00000_5_9_PS.ctf:mrc 30115.011717 31027.017437 578.373047 94.718051 0.109957 4.085911 1.083340 -0.17184 5.839478 79.973452 -6.19202 -85.57167 3.048401
frames/area12_ts_002_001_00000_8.9.eer 189 8.949180 79.000000 15.000000 -3.00000 MotionCorr/job003/frames/area12_ts_002_001_00000_8_9_PS.mrc MotionCorr/job003/frames/area12_ts_002_001_00000_8_9.mrc MotionCorr/job003/frames/area12_ts_002_001_00000_8_9.star 0.487094 0.000000 0.487094 CtfFind/job004/frames/area12_ts_002_001_00000_8_9_PS.ctf:mrc 31096.163848 32021.036586 555.308594 95.190164 0.107639 4.712727 0.842110 -0.16981 8.941833 79.966060 -23.13467 -100.69907 2.778494
frames/area12_ts_002_001_00000_11.9.eer 189 11.949300 79.000000 18.000000 -3.00000 MotionCorr/job003/frames/area12_ts_002_001_00000_11_9_PS.mrc MotionCorr/job003/frames/area12_ts_002_001_00000_11_9.mrc MotionCorr/job003/frames/area12_ts_002_001_00000_11_9.star 0.576614 0.000000 0.576614 CtfFind/job004/frames/area12_ts_002_001_00000_11_9_PS.ctf:mrc 30493.048244 31642.988708 713.597656 93.570600 0.089540 4.459355 1.259850 -0.18700 11.970905 79.964759 -13.52919 -140.29969 2.637861
frames/area12_ts_002_001_00000_14.9.eer 189 14.949400 79.000000 27.000000 -3.00000 MotionCorr/job003/frames/area12_ts_002_001_00000_14_9_PS.mrc MotionCorr/job003/frames/area12_ts_002_001_00000_14_9.mrc MotionCorr/job003/frames/area12_ts_002_001_00000_14_9.star 0.595945 0.000000 0.595945 CtfFind/job004/frames/area12_ts_002_001_00000_14_9_PS.ctf:mrc 31308.957227 32226.472693 624.345703 103.509388 0.104804 5.720276 1.163000 -0.22540 14.919552 79.947924 -43.43728 -175.34680 2.405653
frames/area12_ts_002_001_00000_17.9.eer 189 17.949600 79.000000 30.000000 -3.00000 MotionCorr/job003/frames/area12_ts_002_001_00000_17_9_PS.mrc MotionCorr/job003/frames/area12_ts_002_001_00000_17_9.mrc MotionCorr/job003/frames/area12_ts_002_001_00000_17_9.star 0.563142 0.000000 0.563142 CtfFind/job004/frames/area12_ts_002_001_00000_17_9_PS.ctf:mrc 30783.643705 31930.374993 788.037109 83.603365 0.078242 5.566711 1.175730 -0.19621 17.959360 79.942134 -31.59530 -194.08688 2.278279
frames/area12_ts_002_001_00000_20.9.eer 189 20.948700 79.000000 39.000000 -3.00000 MotionCorr/job003/frames/area12_ts_002_001_00000_20_9_PS.mrc MotionCorr/job003/frames/area12_ts_002_001_00000_20_9.mrc MotionCorr/job003/frames/area12_ts_002_001_00000_20_9.star 0.352982 0.000000 0.352982 CtfFind/job004/frames/area12_ts_002_001_00000_20_9_PS.ctf:mrc 31980.076053 32761.298026 738.349609 99.762398 0.078241 6.854876 0.867120 -0.20839 20.953903 79.931165 -42.94095 -189.81603 2.162902
frames/area12_ts_002_001_00000_23.9.eer 189 23.949300 79.000000 42.000000 -3.00000 MotionCorr/job003/frames/area12_ts_002_001_00000_23_9_PS.mrc MotionCorr/job003/frames/area12_ts_002_001_00000_23_9.mrc MotionCorr/job003/frames/area12_ts_002_001_00000_23_9.star 0.302276 0.000000 0.302276 CtfFind/job004/frames/area12_ts_002_001_00000_23_9_PS.ctf:mrc 31949.207742 32689.509629 504.193359 105.539130 0.050635 9.114725 0.657770 -0.15189 23.969699 79.946567 -42.52445 -250.63157 2.048843
frames/area12_ts_002_001_00000_26.9.eer 189 26.949000 79.000000 51.000000 -3.00000 MotionCorr/job003/frames/area12_ts_002_001_00000_26_9_PS.mrc MotionCorr/job003/frames/area12_ts_002_001_00000_26_9.mrc MotionCorr/job003/frames/area12_ts_002_001_00000_26_9.star 0.485016 0.000000 0.485016 CtfFind/job004/frames/area12_ts_002_001_00000_26_9_PS.ctf:mrc 32337.920648 33219.854864 287.968750 79.828583 0.078020 8.212277 0.895460 -0.15871 26.945904 79.933359 -48.02743 -278.21388 1.737945
frames/area12_ts_002_001_00000_29.9.eer 189 29.948600 79.000000 54.000000 -3.00000 MotionCorr/job003/frames/area12_ts_002_001_00000_29_9_PS.mrc MotionCorr/job003/frames/area12_ts_002_001_00000_29_9.mrc MotionCorr/job003/frames/area12_ts_002_001_00000_29_9.star 0.254590 0.000000 0.254590 CtfFind/job004/frames/area12_ts_002_001_00000_29_9_PS.ctf:mrc 32413.578530 33200.323252 473.607422 80.013328 0.061909 7.899429 0.692460 -0.16094 29.979883 79.927877 -58.41701 -274.50288 1.620069
frames/area12_ts_002_001_00000_32.9.eer 189 32.948200 79.000000 63.000000 -3.00000 MotionCorr/job003/frames/area12_ts_002_001_00000_32_9_PS.mrc MotionCorr/job003/frames/area12_ts_002_001_00000_32_9.mrc MotionCorr/job003/frames/area12_ts_002_001_00000_32_9.star 0.569151 0.000000 0.569151 CtfFind/job004/frames/area12_ts_002_001_00000_32_9_PS.ctf:mrc 31566.361811 32885.088369 856.384766 94.389985 0.053428 8.823830 0.879260 -0.21988 32.982980 79.921393 -54.40083 -273.78442 1.447807
frames/area12_ts_002_001_00000_35.9.eer 189 35.948900 79.000000 66.000000 -3.00000 MotionCorr/job003/frames/area12_ts_002_001_00000_35_9_PS.mrc MotionCorr/job003/frames/area12_ts_002_001_00000_35_9.mrc MotionCorr/job003/frames/area12_ts_002_001_00000_35_9.star 0.271965 0.000000 0.271965 CtfFind/job004/frames/area12_ts_002_001_00000_35_9_PS.ctf:mrc 31100.959482 32272.019124 648.277344 76.698444 0.064310 9.758118 0.664190 -0.21722 35.952258 79.918716 -75.93313 -366.16419 1.366765
frames/area12_ts_002_001_00000_38.9.eer 189 38.948500 79.000000 75.000000 -3.00000 MotionCorr/job003/frames/area12_ts_002_001_00000_38_9_PS.mrc MotionCorr/job003/frames/area12_ts_002_001_00000_38_9.mrc MotionCorr/job003/frames/area12_ts_002_001_00000_38_9.star 0.350806 0.000000 0.350806 CtfFind/job004/frames/area12_ts_002_001_00000_38_9_PS.ctf:mrc 32915.502459 33430.842435 334.695312 77.978100 0.093364 10.499241 1.056970 -0.17223 38.939303 79.914112 -80.70133 -353.78256 1.171776
frames/area12_ts_002_001_00000_41.9.eer 189 41.948600 79.000000 78.000000 -3.00000 MotionCorr/job003/frames/area12_ts_002_001_00000_41_9_PS.mrc MotionCorr/job003/frames/area12_ts_002_001_00000_41_9.mrc MotionCorr/job003/frames/area12_ts_002_001_00000_41_9.star 0.189672 0.000000 0.189672 CtfFind/job004/frames/area12_ts_002_001_00000_41_9_PS.ctf:mrc 31802.163028 32511.137965 388.558594 99.524434 0.068101 11.362192 0.751710 -0.25338 41.967772 79.903870 -77.39602 -401.02232 1.046210
frames/area12_ts_002_001_00000_44.9.eer 189 44.948300 79.000000 87.000000 -3.00000 MotionCorr/job003/frames/area12_ts_002_001_00000_44_9_PS.mrc MotionCorr/job003/frames/area12_ts_002_001_00000_44_9.mrc MotionCorr/job003/frames/area12_ts_002_001_00000_44_9.star 0.432460 0.000000 0.432460 CtfFind/job004/frames/area12_ts_002_001_00000_44_9_PS.ctf:mrc 32928.265313 33694.698582 244.447266 103.225541 0.127181 10.771948 0.948780 -0.11441 44.951470 79.935844 -90.63022 -407.34048 0.798933
frames/area12_ts_002_001_00000_47.9.eer 189 47.948400 79.000000 90.000000 -3.00000 MotionCorr/job003/frames/area12_ts_002_001_00000_47_9_PS.mrc MotionCorr/job003/frames/area12_ts_002_001_00000_47_9.mrc MotionCorr/job003/frames/area12_ts_002_001_00000_47_9.star 0.199055 0.000000 0.199055 CtfFind/job004/frames/area12_ts_002_001_00000_47_9_PS.ctf:mrc 32588.196983 32871.747286 187.837891 103.120982 0.106146 12.379702 1.399990 0.385084 48.126540 80.300155 -96.58962 -380.44660 -0.09121
frames/area12_ts_002_001_00000_50.9.eer 189 50.948500 79.000000 99.000000 -3.00000 MotionCorr/job003/frames/area12_ts_002_001_00000_50_9_PS.mrc MotionCorr/job003/frames/area12_ts_002_001_00000_50_9.mrc MotionCorr/job003/frames/area12_ts_002_001_00000_50_9.star 0.460537 0.000000 0.460537 CtfFind/job004/frames/area12_ts_002_001_00000_50_9_PS.ctf:mrc 34023.056684 34546.010474 170.730469 105.166304 0.092551 11.520000 0.650250 0.651805 50.778113 80.336603 -77.85882 -238.46521 0.020444
frames/area12_ts_002_001_00000_53.9.eer 189 53.948700 79.000000 102.000000 -3.00000 MotionCorr/job003/frames/area12_ts_002_001_00000_53_9_PS.mrc MotionCorr/job003/frames/area12_ts_002_001_00000_53_9.mrc MotionCorr/job003/frames/area12_ts_002_001_00000_53_9.star 0.332985 0.000000 0.332985 CtfFind/job004/frames/area12_ts_002_001_00000_53_9_PS.ctf:mrc 33486.764798 33961.511917 287.683594 100.315656 0.116281 13.824000 1.471590 -0.47182 53.573907 79.581593 -41.11846 -168.61706 0.033911
frames/area12_ts_002_001_00000_56.9.eer 189 56.948300 79.000000 111.000000 -3.00000 MotionCorr/job003/frames/area12_ts_002_001_00000_56_9_PS.mrc MotionCorr/job003/frames/area12_ts_002_001_00000_56_9.mrc MotionCorr/job003/frames/area12_ts_002_001_00000_56_9.star 0.391129 0.000000 0.391129 CtfFind/job004/frames/area12_ts_002_001_00000_56_9_PS.ctf:mrc 34570.463419 34988.506705 70.234375 90.662998 0.107205 14.058305 1.471040 0.111238 57.248548 79.976734 -50.83935 -55.17267 -0.01288
frames/area12_ts_002_001_00000_59.9.eer 189 59.947900 79.000000 114.000000 -3.00000 MotionCorr/job003/frames/area12_ts_002_001_00000_59_9_PS.mrc MotionCorr/job003/frames/area12_ts_002_001_00000_59_9.mrc MotionCorr/job003/frames/area12_ts_002_001_00000_59_9.star 0.472066 0.000000 0.472066 CtfFind/job004/frames/area12_ts_002_001_00000_59_9_PS.ctf:mrc 33345.121272 33707.588084 56.652344 104.856505 0.134199 15.080727 0.855780 -0.97848 60.196791 79.319079 -27.30485 -22.62876 0.177606
