# Created 2026-03-25 09:18:17.437417

data_optics

loop_
_rlnOpticsGroup
_rlnOpticsGroupName
_rlnImagePixelSize
_rlnImageSize
_rlnVoltage
_rlnSphericalAberration
_rlnAmplitudeContrast
_rlnImageDimensionality
1 opticsGroup1 1.5 128 300.0 2.7 0.1 2


data_particles

loop_
_rlnDefocusU
_rlnDefocusV
_rlnDefocusAngle
_rlnImageName
_rlnMicrographName
_rlnCtfScalefactor
_rlnGroupName
_rlnAngleRot
_rlnAngleTilt
_rlnAnglePsi
_rlnOriginXAngst
_rlnOriginYAngst
_rlnRandomSubset
_rlnMicrographPreExposure
_rlnTomoNominalStageTiltAngle
_rlnOpticsGroup
30148.20508075689 31148.20508075689 45.0 000001@Extract/tomo_001/1_stack2d.mrcs mic_000.mrc 1.0 tomo_001/1 -42.38412287038469 71.23137624439379 -8.230033295433634 0.0 0.0 1 3.0 -60.0 1
30150.0 31150.0 45.0 000002@Extract/tomo_001/1_stack2d.mrcs mic_002.mrc 1.2 tomo_001/1 10.000000000000002 19.999999999999996 -52.0 0.0 0.0 1 9.0 0.0 1
30201.79491924311 31201.79491924311 45.0 000003@Extract/tomo_001/1_stack2d.mrcs mic_004.mrc 1.4 tomo_001/1 117.45931888559942 51.833750249288656 -151.86832226500314 0.0 0.0 1 15.0 60.0 1
