# version 50001

data_my_ts_001

loop_
_rlnMicrographName #1
_rlnTomoNominalStageTiltAngle #2
_rlnMicrographPreExposure #3
_rlnTomoXTilt #4
_rlnTomoYTilt #5
_rlnTomoZRot #6
_rlnTomoXShiftAngst #7
_rlnTomoYShiftAngst #8
_rlnDefocusU #9
_rlnDefocusV #10
_rlnDefocusAngle #11
_rlnCtfScalefactor #12
mic_000.mrc -60.000 3.0 -60.000 0.0 80.000 0.0 -0.0 30000.0 31000.0 45.0 1.000
mic_001.mrc -30.000 6.0 -30.000 0.0 81.000 10.0 -5.0 30100.0 31100.0 45.0 1.100
mic_002.mrc 0.000 9.0 0.000 0.0 82.000 20.0 -10.0 30200.0 31200.0 45.0 1.200
mic_003.mrc 30.000 12.0 30.000 0.0 83.000 30.0 -15.0 30300.0 31300.0 45.0 1.300
mic_004.mrc 60.000 15.0 60.000 0.0 84.000 40.0 -20.0 30400.0 31400.0 45.0 1.400
