# Created 2026-03-25 09:18:17.427271

data_optics

loop_
_rlnOpticsGroup
_rlnOpticsGroupName
_rlnImagePixelSize
_rlnImageSize
_rlnVoltage
_rlnSphericalAberration
_rlnAmplitudeContrast
_rlnImageDimensionality
1 opticsGroup1 1.5 128 300.0 2.7 0.1 2


data_particles

loop_
_rlnDefocusU
_rlnDefocusV
_rlnDefocusAngle
_rlnImageName
_rlnMicrographName
_rlnCtfScalefactor
_rlnGroupName
_rlnAngleRot
_rlnAngleTilt
_rlnAnglePsi
_rlnOriginXAngst
_rlnOriginYAngst
_rlnRandomSubset
_rlnMicrographPreExposure
_rlnTomoNominalStageTiltAngle
_rlnOpticsGroup
30343.9307738413 31343.9307738413 45.0 000001@Extract/Subtomograms/tomo_001/1_stack2d.mrcs mic_000.mrc 1.0 tomo_001/1 127.61446337940828 148.80689632652133 -105.95431309428874 0.0 0.0 1 3.0 -60.0 1
30007.202 31007.202 45.0 000002@Extract/Subtomograms/tomo_001/1_stack2d.mrcs mic_001.mrc 1.1 tomo_001/1 -137.59475065226295 128.6100560166183 -27.58094056170726 0.0 0.0 1 6.0 0.0 1
29763.2712261587 30763.2712261587 45.0 000003@Extract/Subtomograms/tomo_001/1_stack2d.mrcs mic_002.mrc 1.2 tomo_001/1 -105.55451399459824 76.6199100804891 -20.599297835188377 0.0 0.0 1 9.0 60.0 1
