# Created 2026-03-25 09:18:17.446641

data_optics

loop_
_rlnOpticsGroup
_rlnOpticsGroupName
_rlnImagePixelSize
_rlnImageSize
_rlnVoltage
_rlnSphericalAberration
_rlnAmplitudeContrast
_rlnImageDimensionality
1 opticsGroup1 1.5 128 300.0 2.7 0.1 2


data_particles

loop_
_rlnDefocusU
_rlnDefocusV
_rlnDefocusAngle
_rlnImageName
_rlnMicrographName
_rlnCtfScalefactor
_rlnGroupName
_rlnAngleRot
_rlnAngleTilt
_rlnAnglePsi
_rlnOriginXAngst
_rlnOriginYAngst
_rlnRandomSubset
_rlnMicrographPreExposure
_rlnTomoNominalStageTiltAngle
_rlnOpticsGroup
30343.9307738413 31343.9307738413 45.0 000001@Extract/Subtomograms/tomo_001/1_stack2d.mrcs mic_000.mrc 1.0 tomo_001/1 127.27990754526094 151.14975722515825 -96.52129743198249 0.0 0.0 1 3.0 -60.0 1
30007.202 31007.202 45.0 000002@Extract/Subtomograms/tomo_001/1_stack2d.mrcs mic_001.mrc 1.1 tomo_001/1 -144.483 123.83299999999998 -24.842000000000002 0.0 0.0 1 6.0 0.0 1
29763.2712261587 30763.2712261587 45.0 000003@Extract/Subtomograms/tomo_001/1_stack2d.mrcs mic_002.mrc 1.2 tomo_001/1 -113.89241518699636 71.39090471352606 -21.217129167459866 0.0 0.0 1 9.0 60.0 1
30296.89471825617 31296.89471825617 45.0 000001@Extract/Subtomograms/tomo_001/2_stack2d.mrcs mic_000.mrc 1.0 tomo_001/2 179.7777760502994 118.34856941946835 -161.72457523172898 0.0 0.0 2 3.0 -60.0 1
30059.554 31059.554 45.0 000002@Extract/Subtomograms/tomo_001/2_stack2d.mrcs mic_001.mrc 1.1 tomo_001/2 -105.09400000000001 172.59 -91.832 0.0 0.0 2 6.0 0.0 1
29862.65928174383 30862.65928174383 45.0 000003@Extract/Subtomograms/tomo_001/2_stack2d.mrcs mic_002.mrc 1.2 tomo_001/2 -8.59430059113392 121.11879940881764 -0.5088981260334081 0.0 0.0 2 9.0 60.0 1
