# Created 2026-03-25 09:18:17.474015

data_optics

loop_
_rlnOpticsGroup
_rlnOpticsGroupName
_rlnImagePixelSize
_rlnImageSize
_rlnVoltage
_rlnSphericalAberration
_rlnAmplitudeContrast
_rlnImageDimensionality
1 opticsGroup1 1.5 128 300.0 2.7 0.1 2


data_particles

loop_
_rlnDefocusU
_rlnDefocusV
_rlnDefocusAngle
_rlnImageName
_rlnMicrographName
_rlnCtfScalefactor
_rlnGroupName
_rlnAngleRot
_rlnAngleTilt
_rlnAnglePsi
_rlnOriginXAngst
_rlnOriginYAngst
_rlnRandomSubset
_rlnMicrographPreExposure
_rlnTomoNominalStageTiltAngle
_rlnOpticsGroup
30148.20508075689 31148.20508075689 45.0 000001@Extract/tomo_000/1_stack2d.mrcs mic_000.mrc 1.0 tomo_000/1 -42.38412287038469 71.23137624439379 -8.230033295433634 0.0 0.0 1 3.0 -60.0 1
30050.0 31050.0 45.0 000002@Extract/tomo_000/1_stack2d.mrcs mic_001.mrc 1.1 tomo_000/1 9.999999999999995 20.0 -51.0 0.0 0.0 1 6.0 0.0 1
30001.79491924311 31001.79491924311 45.0 000003@Extract/tomo_000/1_stack2d.mrcs mic_002.mrc 1.2 tomo_000/1 117.45931888559939 51.833750249288656 -149.86832226500314 0.0 0.0 1 9.0 60.0 1
29851.79491924311 30851.79491924311 45.0 000001@Extract/tomo_000/2_stack2d.mrcs mic_000.mrc 1.0 tomo_000/2 13.410780910053255 104.6633713411438 -13.323198259587834 0.0 0.0 2 3.0 -60.0 1
30150.0 31150.0 45.0 000002@Extract/tomo_000/2_stack2d.mrcs mic_001.mrc 1.1 tomo_000/2 40.0 50.00000000000001 -21.00000000000001 0.0 0.0 2 6.0 0.0 1
30398.20508075689 31398.20508075689 45.0 000003@Extract/tomo_000/2_stack2d.mrcs mic_002.mrc 1.2 tomo_000/2 142.88684076912878 26.372232928134107 -112.42732606894452 0.0 0.0 2 9.0 60.0 1
30000.0 31000.0 45.0 000001@Extract/tomo_001/1_stack2d.mrcs mic_000.mrc 1.0 tomo_001/1 -90.0 59.99999999999999 9.99999999999999 0.0 0.0 1 3.0 -60.0 1
30100.0 31100.0 45.0 000002@Extract/tomo_001/1_stack2d.mrcs mic_001.mrc 1.1 tomo_001/1 -81.0 0.0 0.0 0.0 0.0 1 6.0 0.0 1
30200.0 31200.0 45.0 000003@Extract/tomo_001/1_stack2d.mrcs mic_002.mrc 1.2 tomo_001/1 89.99999999999999 59.999999999999986 -172.0 0.0 0.0 1 9.0 60.0 1
