# Created 2026-03-25 09:18:17.370442

data_optics

loop_
_rlnOpticsGroup
_rlnOpticsGroupName
_rlnImagePixelSize
_rlnImageSize
_rlnVoltage
_rlnSphericalAberration
_rlnAmplitudeContrast
_rlnImageDimensionality
1 opticsGroup1 1.5 128 300.0 2.7 0.1 2


data_particles

loop_
_rlnDefocusU
_rlnDefocusV
_rlnDefocusAngle
_rlnImageName
_rlnMicrographName
_rlnCtfScalefactor
_rlnGroupName
_rlnAngleRot
_rlnAngleTilt
_rlnAnglePsi
_rlnOriginXAngst
_rlnOriginYAngst
_rlnRandomSubset
_rlnMicrographPreExposure
_rlnTomoNominalStageTiltAngle
_rlnOpticsGroup
30343.9307738413 31343.9307738413 45.0 000001@Extract/Subtomograms/tomo_001/1_stack2d.mrcs mic_000.mrc 1.0 tomo_001/1 127.27990754526094 151.14975722515825 -96.52129743198249 0.0 0.0 1 3.0 -60.0 1
30244.991574579613 31244.991574579613 45.0 000002@Extract/Subtomograms/tomo_001/1_stack2d.mrcs mic_001.mrc 1.1 tomo_001/1 -174.18423958907601 145.80661857604997 -46.40142673686033 0.0 0.0 1 6.0 -30.0 1
30107.202 31107.202 45.0 000003@Extract/Subtomograms/tomo_001/1_stack2d.mrcs mic_002.mrc 1.2 tomo_001/1 -144.48300000000003 123.83300000000001 -25.842000000000002 0.0 0.0 1 9.0 0.0 1
29994.277574579613 30994.277574579613 45.0 000004@Extract/Subtomograms/tomo_001/1_stack2d.mrcs mic_003.mrc 1.3 tomo_001/1 -128.15645953506709 97.88675650086051 -20.840901751745932 0.0 0.0 1 12.0 30.0 1
29963.2712261587 30963.2712261587 45.0 000005@Extract/Subtomograms/tomo_001/1_stack2d.mrcs mic_004.mrc 1.4 tomo_001/1 -113.89241518699636 71.39090471352606 -23.217129167459884 0.0 0.0 1 15.0 60.0 1
30296.89471825617 31296.89471825617 45.0 000001@Extract/Subtomograms/tomo_001/2_stack2d.mrcs mic_000.mrc 1.0 tomo_001/2 179.7777760502994 118.34856941946835 -161.72457523172898 0.0 0.0 2 3.0 -60.0 1
30248.060736518535 31248.060736518535 45.0 000002@Extract/Subtomograms/tomo_001/2_stack2d.mrcs mic_001.mrc 1.1 tomo_001/2 -172.44938388934597 147.85178063045163 -157.228336753298 0.0 0.0 2 6.0 -30.0 1
30159.554 31159.554 45.0 000003@Extract/Subtomograms/tomo_001/2_stack2d.mrcs mic_002.mrc 1.2 tomo_001/2 -105.09400000000001 172.59 -92.83199999999998 0.0 0.0 2 9.0 0.0 1
30081.884736518536 31081.884736518536 45.0 000004@Extract/Subtomograms/tomo_001/2_stack2d.mrcs mic_003.mrc 1.3 tomo_001/2 -17.25253818437969 150.5647319187646 -7.936853307076539 0.0 0.0 2 12.0 30.0 1
30062.65928174383 31062.65928174383 45.0 000005@Extract/Subtomograms/tomo_001/2_stack2d.mrcs mic_004.mrc 1.4 tomo_001/2 -8.594300591133926 121.11879940881764 -2.50889812603341 0.0 0.0 2 15.0 60.0 1
29814.513266321963 30814.513266321963 45.0 000001@Extract/Subtomograms/tomo_001/3_stack2d.mrcs mic_000.mrc 1.0 tomo_001/3 129.53530366571476 72.9281100764988 86.91218843633604 0.0 0.0 1 3.0 -60.0 1
30066.388553139645 31066.388553139645 45.0 000002@Extract/Subtomograms/tomo_001/3_stack2d.mrcs mic_001.mrc 1.1 tomo_001/3 98.03195105534728 68.74782427856944 96.4983598073054 0.0 0.0 1 6.0 -30.0 1
30327.27 31327.27 45.0 000003@Extract/Subtomograms/tomo_001/3_stack2d.mrcs mic_002.mrc 1.2 tomo_001/3 66.02600000000001 70.47300000000001 106.91199999999999 0.0 0.0 1 9.0 0.0 1
30554.049553139645 31554.049553139645 45.0 000004@Extract/Subtomograms/tomo_001/3_stack2d.mrcs mic_003.mrc 1.3 tomo_001/3 35.63090055369249 77.4984315609389 114.49970927091024 0.0 0.0 1 12.0 30.0 1
30712.756733678034 31712.756733678034 45.0 000005@Extract/Subtomograms/tomo_001/3_stack2d.mrcs mic_004.mrc 1.4 tomo_001/3 7.124672140972358 87.66858347872768 117.27063764973043 0.0 0.0 1 15.0 60.0 1
29796.82851042652 30796.82851042652 45.0 000001@Extract/Subtomograms/tomo_001/4_stack2d.mrcs mic_000.mrc 1.0 tomo_001/4 91.81782000293353 119.43025646905545 57.723908317153445 0.0 0.0 2 3.0 -60.0 1
29956.86765740928 30956.86765740928 45.0 000002@Extract/Subtomograms/tomo_001/4_stack2d.mrcs mic_001.mrc 1.1 tomo_001/4 69.90155293008206 97.61907011427533 49.55438867103677 0.0 0.0 2 6.0 -30.0 1
30155.259 31155.259 45.0 000003@Extract/Subtomograms/tomo_001/4_stack2d.mrcs mic_002.mrc 1.2 tomo_001/4 50.21799999999999 74.82799999999999 49.89000000000001 0.0 0.0 2 9.0 0.0 1
30365.63865740928 31365.63865740928 45.0 000004@Extract/Subtomograms/tomo_001/4_stack2d.mrcs mic_003.mrc 1.3 tomo_001/4 25.88966179155724 54.13380016779489 59.67525365048825 0.0 0.0 2 12.0 30.0 1
30558.430489573482 31558.430489573482 45.0 000005@Extract/Subtomograms/tomo_001/4_stack2d.mrcs mic_004.mrc 1.4 tomo_001/4 -11.291041000527034 41.14200051804321 84.37407452982454 0.0 0.0 2 15.0 60.0 1
